NTS LL(mkm)  STRESS(GPa)   VEL(m / s)  DENS(kg/m3)  ENERGY(J) 
0 854.95 30.2812 900 10934 -338699
1 1010.3 30.276 899.62 10933.6 -339204
2 1165.66 30.2633 899.193 10932.5 -339049
3 1321.03 30.2374 898.653 10930.3 -338609
4 1476.43 30.1894 897.882 10926.1 -337720
5 1631.89 30.1061 896.689 10919 -335985
6 1787.46 29.9699 894.787 10907.4 -332974
7 1943.19 29.7584 891.773 10889.5 -328509
8 2099.17 29.4445 887.12 10863 -321869
9 2255.54 28.9969 880.175 10825.6 -312621
10 2412.44 28.3816 870.168 10774.8 -300130
11 2570.09 27.5613 856.235 10708.2 -284063
12 2728.72 26.4982 837.445 10623.8 -263956
13 2888.6 25.1515 812.836 10519.7 -239934
14 3050.07 23.4785 781.428 10394.7 -212155
15 3213.48 21.4333 742.188 10248 -181221
16 3379.23 18.966 693.911 10079.2 -148200
17 3547.76 16.0117 635.288 9887.95 -114698
18 3719.54 12.4819 565.825 9673.41 -82721.5
19 3895.14 8.16694 486.895 9429.57 -55179.6
20 4075.27 9.00823 393.248 9259.77 -37647.4
21 4258.71 6.73285 337.781 9117.39 -24397.6
22 4445.01 4.39855 277.541 8975.59 -14776.5
23 4634.26 3.12897 214.237 8847.17 -8935
24 4826.25 2.4727 162.174 8751.29 -5468.81
25 5020.35 1.97102 122.587 8680.26 -3393.87
26 5216.04 1.50873 92.1985 8627.9 -2155.53
27 5412.91 2.21823 66.6363 8590.31 -1480.13
28 5610.64 1.93751 57.8493 8577.81 -1127.96
29 5808.67 1.67185 50.7293 8566.03 -838.975
30 6006.96 1.41872 44.1024 8554.85 -603.548
31 6205.52 1.1832 37.7263 8544.49 -419.401
32 6404.31 0.970115 31.7102 8535.15 -281.705
33 6603.32 0.782299 26.1974 8526.94 -183.037
34 6802.53 0.620609 21.2819 8519.89 -115.115
35 7001.9 0.484481 17.0061 8513.97 -70.115
36 7201.4 0.372318 13.3708 8509.1 -41.3823
37 7401.02 0.281723 10.3466 8505.17 -23.679
38 7600.74 0.209894 7.88181 8502.07 -13.1425
39 7800.52 0.154095 5.91239 8499.65 -7.07908
40 8000.37 0.11143 4.36823 8497.81 -3.70224
41 8200.25 0.0794634 3.17953 8496.43 -1.88085
42 8400.17 0.0558397 2.2805 8495.41 -0.928637
43 8600.12 0.0386714 1.61214 8494.67 -0.44581
44 8800.08 0.0264636 1.12349 8494.14 -0.208193
45 9000.05 0.0177996 0.771958 8493.77 -0.0946333
46 9200.03 0.0118921 0.523085 8493.51 -0.041887
47 9400.02 0.00779609 0.349562 8493.33 -0.018068
48 9600.01 0.00503914 0.23039 8493.22 -0.00760185
49 9800.01 0.0032274 0.149795 8493.14 -0.00312112
50 10000 0.00204582 0.0960023 8493.09 -0.00125376
51 10200 0.0012581 0.060663 8493.05 -0.000493463
52 10400 0.000785469 0.037722 8493.03 -0.000191066
53 10600 0.000470379 0.0230837 8493.02 -7.29923e-05
54 10800 0.000312834 0.0137844 8493.01 -2.78781e-05
55 11000 0.000155296 0.00814211 8493.01 -1.03752e-05
56 11200 0.000155296 0.00446433 8493 -3.98332e-06
57 11400 7.63863e-05 0.00224295 8493 -1.7387e-06
58 11600 7.63863e-05 0.00100313 8493 -7.77598e-07
59 11800 7.63863e-05 0.000451359 8493 -3.45249e-07
60 12000 7.63863e-05 0.000201183 8493 -1.52494e-07
61 12200 7.63863e-05 8.91563e-05 8493 -6.70585e-08
62 12400 7.63863e-05 3.93388e-05 8493 -2.93579e-08
63 12600 7.63863e-05 1.72823e-05 8493 -1.27942e-08
64 12800 7.63863e-05 7.55792e-06 8493 -5.54867e-09
65 13000 7.63863e-05 3.28976e-06 8493 -2.39571e-09
66 13200 7.63863e-05 1.42511e-06 8493 -1.0288e-09
67 13400 7.63863e-05 6.14359e-07 8493 -4.3998e-10
68 13600 7.63863e-05 2.63545e-07 8493 -1.86679e-10
69 13800 7.63863e-05 1.12491e-07 8493 -7.91034e-11
70 14000 7.63863e-05 4.77724e-08 8493 -3.33095e-11
71 14200 7.63863e-05 2.0184e-08 8493 -1.39637e-11
72 14400 7.63863e-05 8.48356e-09 8493 -5.77312e-12
73 14600 7.63863e-05 3.54698e-09 8493 -3.04162e-12
74 14800 7.63863e-05 1.47509e-09 8493 0
75 15000 7.63863e-05 6.10146e-10 8493 0
76 15200 7.63863e-05 2.50999e-10 8493 0
77 15400 7.63863e-05 1.02685e-10 8493 0
78 15600 7.63863e-05 4.17751e-11 8493 0
79 15800 7.63863e-05 1.68994e-11 8493 0
80 16000 7.63863e-05 6.79746e-12 8493 0
81 16200 7.63863e-05 2.71844e-12 8493 0
82 16400 7.63863e-05 1.08085e-12 8493 0
83 16600 7.63863e-05 4.27235e-13 8493 0
84 16800 7.63863e-05 1.6788e-13 8493 0
85 17000 7.63863e-05 6.55759e-14 8493 0
86 17200 7.63863e-05 2.54614e-14 8493 0
87 17400 7.63863e-05 9.82646e-15 8493 0
88 17600 7.63863e-05 3.76939e-15 8493 0
89 17800 7.63863e-05 1.43711e-15 8493 0
90 18000 7.63863e-05 5.44545e-16 8493 0
91 18200 7.63863e-05 2.0507e-16 8493 0
92 18400 7.63863e-05 7.67587e-17 8493 0
93 18600 7.63863e-05 2.85395e-17 8493 0
94 18800 7.63863e-05 1.05579e-17 8493 0
95 19000 7.63863e-05 3.89615e-18 8493 0
96 19200 7.63863e-05 1.48956e-18 8493 0
97 19400 7.63863e-05 7.13243e-19 8493 5.34671e-07
98 19600 7.63863e-05 1.20202e-11 8493 7.3282e-06
99 19800 7.63863e-05 7.42888e-12 8493 0.026289
