NTS LL(mkm)  STRESS(GPa)   VEL(m / s)  DENS(kg/m3)  ENERGY(J) 
0 900.313 30.2961 900 10935.3 -339023
1 1055.65 30.2924 899.659 10935 -339561
2 1210.98 30.2836 899.287 10934.2 -339490
3 1366.33 30.2656 898.841 10932.7 -339220
4 1521.7 30.2321 898.239 10929.8 -338647
5 1677.11 30.1736 897.346 10924.8 -337443
6 1832.59 30.0767 895.957 10916.5 -335269
7 1988.19 29.9239 893.772 10903.5 -332038
8 2143.97 29.6933 890.386 10883.9 -327115
9 2300.04 29.359 885.282 10855.8 -320127
10 2456.51 28.8916 877.83 10816.8 -310460
11 2613.54 28.2584 867.299 10764.7 -297742
12 2771.33 27.4254 852.875 10697.3 -281394
13 2930.12 26.3556 833.688 10612.6 -261357
14 3090.18 25.0109 808.829 10509 -237518
15 3251.81 23.3503 777.369 10385.3 -210110
16 3415.37 21.329 738.316 10240.7 -179709
17 3581.24 18.8945 690.504 10074.5 -147360
18 3749.84 15.9915 632.663 9886.67 -114447
19 3921.65 12.5073 564.47 9674.9 -82945.8
20 4097.21 8.25907 486.723 9434.58 -55660.1
21 4277.25 9.09261 393.655 9265.12 -38215.1
22 4460.59 6.86211 339.139 9125.34 -25046.9
23 4646.73 4.56462 280.128 8985.53 -15328.9
24 4835.77 3.19234 217.871 8856.57 -9312.44
25 5027.56 2.52789 165.425 8759.23 -5727.68
26 5221.48 2.02065 125.354 8687.21 -3575.57
27 5417.01 1.59426 94.2975 8634.19 -2286.3
28 5613.73 2.2718 68.4692 8592.7 -1552.82
29 5811.41 1.99179 59.2281 8580.23 -1192.43
30 6009.38 1.73244 51.9958 8568.71 -901.152
31 6207.61 1.48534 45.4949 8557.79 -661.766
32 6406.1 1.25302 39.2937 8547.56 -470.531
33 6604.82 1.04002 33.3971 8538.21 -323.859
34 6803.76 0.849448 27.9225 8529.87 -215.898
35 7002.9 0.683025 22.9706 8522.61 -139.481
36 7202.2 0.540735 18.5993 8516.42 -87.3746
37 7401.65 0.421687 14.8268 8511.24 -53.0968
38 7601.23 0.32388 11.6394 8507 -31.317
39 7800.9 0.245221 9.00031 8503.59 -17.9358
40 8000.65 0.182902 6.8568 8500.9 -9.97902
41 8200.46 0.134496 5.14782 8498.81 -5.39615
42 8400.33 0.0975729 3.80956 8497.21 -2.83722
43 8600.23 0.069778 2.77942 8496.01 -1.45111
44 8800.16 0.0492245 1.99958 8495.12 -0.722273
45 9000.11 0.0342609 1.41886 8494.48 -0.350006
46 9200.07 0.0235494 0.993087 8494.01 -0.165219
47 9400.05 0.015988 0.685845 8493.69 -0.0759969
48 9600.03 0.0107105 0.467319 8493.46 -0.0340886
49 9800.02 0.00708716 0.314272 8493.3 -0.0149166
50 10000 0.00464528 0.208541 8493.2 -0.00637384
51 10200 0.00299109 0.136556 8493.13 -0.00266322
52 10400 0.00188828 0.0882298 8493.08 -0.0010891
53 10600 0.00117933 0.056224 8493.05 -0.000436705
54 10800 0.000785469 0.0352651 8493.03 -0.000172384
55 11000 0.000470379 0.0217506 8493.02 -6.7352e-05
56 11200 0.000312834 0.0131266 8493.01 -2.62148e-05
57 11400 0.000155296 0.00780985 8493.01 -9.98645e-06
58 11600 0.000155296 0.00434944 8493 -3.85502e-06
59 11800 7.63863e-05 0.00216842 8493 -1.71762e-06
60 12000 7.63863e-05 0.000984049 8493 -7.7516e-07
61 12200 7.63863e-05 0.000446766 8493 -3.47301e-07
62 12400 7.63863e-05 0.0002009 8493 -1.54856e-07
63 12600 7.63863e-05 8.98651e-05 8493 -6.87611e-08
64 12800 7.63863e-05 4.00332e-05 8493 -3.04043e-08
65 13000 7.63863e-05 1.77603e-05 8493 -1.33861e-08
66 13200 7.63863e-05 7.84537e-06 8493 -5.86664e-09
67 13400 7.63863e-05 3.45039e-06 8493 -2.56055e-09
68 13600 7.63863e-05 1.51072e-06 8493 -1.11165e-09
69 13800 7.63863e-05 6.5847e-07 8493 -4.80625e-10
70 14000 7.63863e-05 2.85686e-07 8493 -2.06884e-10
71 14200 7.63863e-05 1.2337e-07 8493 -8.86983e-11
72 14400 7.63863e-05 5.3024e-08 8493 -3.77574e-11
73 14600 7.63863e-05 2.26801e-08 8493 -1.60692e-11
74 14800 7.63863e-05 9.65378e-09 8493 -6.78635e-12
75 15000 7.63863e-05 4.08888e-09 8493 -3.19765e-12
76 15200 7.63863e-05 1.72321e-09 8493 -4.6809e-13
77 15400 7.63863e-05 7.22555e-10 8493 0
78 15600 7.63863e-05 3.01424e-10 8493 0
79 15800 7.63863e-05 1.25093e-10 8493 0
80 16000 7.63863e-05 5.16431e-11 8493 0
81 16200 7.63863e-05 2.12075e-11 8493 0
82 16400 7.63863e-05 8.66249e-12 8493 0
83 16600 7.63863e-05 3.51922e-12 8493 0
84 16800 7.63863e-05 1.42194e-12 8493 0
85 17000 7.63863e-05 5.71376e-13 8493 0
86 17200 7.63863e-05 2.28323e-13 8493 0
87 17400 7.63863e-05 9.0729e-14 8493 0
88 17600 7.63863e-05 3.58501e-14 8493 0
89 17800 7.63863e-05 1.40852e-14 8493 0
90 18000 7.63863e-05 5.50237e-15 8493 0
91 18200 7.63863e-05 2.13714e-15 8493 0
92 18400 7.63863e-05 8.25296e-16 8493 0
93 18600 7.63863e-05 3.16865e-16 8493 0
94 18800 7.63863e-05 1.21045e-16 8493 0
95 19000 7.63863e-05 4.62125e-17 8493 0
96 19200 7.63863e-05 1.82133e-17 8493 0
97 19400 7.63863e-05 8.91258e-18 8493 5.34671e-07
98 19600 7.63863e-05 4.80632e-12 8493 7.3282e-06
99 19800 7.63863e-05 2.97047e-12 8493 0.026289
