NTS LL(mkm)  STRESS(GPa)   VEL(m / s)  DENS(kg/m3)  ENERGY(J) 
0 901.842 30.2966 900 10935.3 -339033
1 1057.17 30.2929 899.66 10935 -339573
2 1212.51 30.2842 899.29 10934.3 -339503
3 1367.86 30.2664 898.846 10932.7 -339238
4 1523.22 30.2334 898.249 10929.9 -338673
5 1678.63 30.1756 897.365 10925 -337485
6 1834.11 30.0797 895.99 10916.8 -335334
7 1989.71 29.9286 893.828 10903.9 -332139
8 2145.49 29.7004 890.478 10884.5 -327265
9 2301.54 29.3694 885.427 10856.7 -320345
10 2458 28.9063 878.049 10818 -310763
11 2615.01 28.2788 867.618 10766.3 -298148
12 2772.78 27.4526 853.324 10699.4 -281918
13 2931.54 26.3913 834.3 10615.4 -262010
14 3091.55 25.0566 809.64 10512.5 -238303
15 3253.13 23.4077 778.416 10389.5 -211020
16 3416.62 21.4003 739.629 10245.7 -180727
17 3582.41 18.9822 692.13 10080.3 -148450
18 3750.92 16.097 634.733 9893.31 -115535
19 3922.61 12.6308 567.171 9682.17 -83920
20 4098.04 8.4118 489.703 9442.91 -56436.8
21 4277.93 9.16605 395.959 9269.82 -38714.2
22 4461.17 6.94112 341.021 9130.25 -25453
23 4647.21 4.64823 282.162 8990.56 -15614.6
24 4836.14 3.2201 220.035 8860.71 -9481.2
25 5027.84 2.54934 167.09 8762.32 -5829.84
26 5221.69 2.03751 126.589 8689.56 -3638.9
27 5417.17 1.62028 95.1579 8636.11 -2327.43
28 5613.85 1.04198 69.9246 8593.43 -1566.9
29 5811.51 2.00348 58.8781 8580.74 -1206.45
30 6009.47 1.74322 52.3054 8569.19 -912.478
31 6207.69 1.49558 45.7673 8558.24 -671.011
32 6406.17 1.26281 39.5508 8547.99 -477.946
33 6604.88 1.04911 33.6442 8538.61 -329.578
34 6803.81 0.857761 28.1553 8530.23 -220.127
35 7002.94 0.690325 23.184 8522.93 -142.486
36 7202.24 0.547097 18.7901 8516.69 -89.4295
37 7401.68 0.427032 14.9933 8511.47 -54.4519
38 7601.25 0.328363 11.7817 8507.19 -32.1797
39 7800.91 0.248762 9.11923 8503.75 -18.4667
40 8000.66 0.185813 6.95437 8501.02 -10.2951
41 8200.47 0.136778 5.22635 8498.9 -5.57832
42 8400.33 0.0993051 3.87154 8497.28 -2.93903
43 8600.23 0.0711167 2.82756 8496.07 -1.50628
44 8800.16 0.0502483 2.03635 8495.16 -0.751276
45 9000.11 0.0349697 1.44643 8494.51 -0.364822
46 9200.07 0.0241007 1.01346 8494.04 -0.17257
47 9400.05 0.0163818 0.700637 8493.7 -0.0795481
48 9600.03 0.0109469 0.477922 8493.47 -0.0357571
49 9800.02 0.0072447 0.321753 8493.31 -0.0156797
50 10000 0.00472405 0.213742 8493.2 -0.00671401
51 10200 0.00306986 0.140126 8493.13 -0.00281084
52 10400 0.00196705 0.0906301 8493.08 -0.00115201
53 10600 0.0012581 0.0578279 8493.05 -0.000462883
54 10800 0.000785469 0.0363178 8493.03 -0.000183129
55 11000 0.000470379 0.0224602 8493.02 -7.14759e-05
56 11200 0.000312834 0.0135547 8493.01 -2.78972e-05
57 11400 0.000155296 0.00811461 8493.01 -1.05394e-05
58 11600 0.000155296 0.00445919 8493 -4.18991e-06
59 11800 7.63863e-05 0.00232333 8493 -1.81207e-06
60 12000 7.63863e-05 0.00103815 8493 -8.17337e-07
61 12200 7.63863e-05 0.00047066 8493 -3.66572e-07
62 12400 7.63863e-05 0.000211931 8493 -1.63567e-07
63 12600 7.63863e-05 9.48772e-05 8493 -7.26728e-08
64 12800 7.63863e-05 4.22911e-05 8493 -3.21532e-08
65 13000 7.63863e-05 1.8773e-05 8493 -1.41648e-08
66 13200 7.63863e-05 8.29779e-06 8493 -6.21192e-09
67 13400 7.63863e-05 3.65166e-06 8493 -2.71298e-09
68 13600 7.63863e-05 1.59988e-06 8493 -1.17867e-09
69 13800 7.63863e-05 6.97792e-07 8493 -5.09957e-10
70 14000 7.63863e-05 3.0295e-07 8493 -2.19677e-10
71 14200 7.63863e-05 1.30916e-07 8493 -9.42364e-11
72 14400 7.63863e-05 5.63069e-08 8493 -4.00978e-11
73 14600 7.63863e-05 2.41016e-08 8493 -1.71614e-11
74 14800 7.63863e-05 1.02664e-08 8493 -7.25444e-12
75 15000 7.63863e-05 4.35162e-09 8493 -3.19765e-12
76 15200 7.63863e-05 1.83534e-09 8493 -7.01173e-13
77 15400 7.63863e-05 7.70172e-10 8493 0
78 15600 7.63863e-05 3.21544e-10 8493 0
79 15800 7.63863e-05 1.33551e-10 8493 0
80 16000 7.63863e-05 5.51803e-11 8493 0
81 16200 7.63863e-05 2.26791e-11 8493 0
82 16400 7.63863e-05 9.27149e-12 8493 0
83 16600 7.63863e-05 3.76991e-12 8493 0
84 16800 7.63863e-05 1.52457e-12 8493 0
85 17000 7.63863e-05 6.13169e-13 8493 0
86 17200 7.63863e-05 2.45248e-13 8493 0
87 17400 7.63863e-05 9.75447e-14 8493 0
88 17600 7.63863e-05 3.85795e-14 8493 0
89 17800 7.63863e-05 1.51721e-14 8493 0
90 18000 7.63863e-05 5.93271e-15 8493 0
91 18200 7.63863e-05 2.30655e-15 8493 0
92 18400 7.63863e-05 8.91602e-16 8493 0
93 18600 7.63863e-05 3.42676e-16 8493 0
94 18800 7.63863e-05 1.31035e-16 8493 0
95 19000 7.63863e-05 5.00841e-17 8493 0
96 19200 7.63863e-05 1.9761e-17 8493 0
97 19400 7.63863e-05 9.67913e-18 8493 5.34671e-07
98 19600 7.63863e-05 4.66009e-12 8493 7.3282e-06
99 19800 7.63863e-05 2.88009e-12 8493 0.026289
