NTS LL(mkm)  STRESS(GPa)   VEL(m / s)  DENS(kg/m3)  ENERGY(J) 
0 904.391 30.2973 900 10935.4 -339050
1 1059.72 30.2938 899.662 10935.1 -339591
2 1215.06 30.2853 899.295 10934.4 -339526
3 1370.4 30.2678 898.855 10932.9 -339268
4 1525.77 30.2354 898.265 10930.1 -338718
5 1681.17 30.1787 897.395 10925.2 -337553
6 1836.65 30.0847 896.044 10917.2 -335441
7 1992.24 29.9364 893.92 10904.6 -332304
8 2148.01 29.7121 890.629 10885.5 -327513
9 2304.05 29.3866 885.665 10858.1 -320703
10 2460.49 28.9306 878.409 10820 -311262
11 2617.47 28.3123 868.142 10769.1 -298817
12 2775.2 27.4976 854.062 10703.1 -282783
13 2933.9 26.45 835.307 10620 -263089
14 3093.85 25.1318 810.977 10518.2 -239600
15 3255.34 23.5025 780.14 10396.5 -212527
16 3418.72 21.5181 741.796 10254 -182416
17 3584.37 19.127 694.827 10090 -150261
18 3752.72 16.2707 638.172 9904.27 -117343
19 3924.22 12.8356 571.567 9694.26 -85558.1
20 4099.44 8.66797 494.455 9456.92 -57773.3
21 4279.05 9.29102 399.995 9277.76 -39564.4
22 4462.14 7.07335 344.25 9138.43 -26138.4
23 4648.01 4.78732 285.544 8998.92 -16101
24 4836.77 3.26684 223.652 8867.7 -9769.3
25 5028.31 2.58567 169.889 8767.56 -6004.48
26 5222.05 2.06588 128.675 8693.55 -3747.12
27 5417.44 1.662 96.7655 8639.17 -2394.74
28 5614.05 1.06331 72.5497 8595.01 -1589.36
29 5811.68 2.01985 58.139 8581.47 -1226.4
30 6009.62 1.76125 52.6779 8569.99 -931.473
31 6207.82 1.51286 46.2197 8559 -686.612
32 6406.28 1.27924 39.9813 8548.71 -490.464
33 6604.98 1.06439 34.0569 8539.28 -339.254
34 6803.89 0.871564 28.5443 8530.84 -227.304
35 7003 0.70257 23.5412 8523.46 -147.6
36 7202.29 0.557702 19.1099 8517.15 -92.9376
37 7401.72 0.435992 15.2731 8511.86 -56.7718
38 7601.28 0.335833 12.0208 8507.52 -33.661
39 7800.94 0.254898 9.31973 8504.01 -19.3807
40 8000.68 0.190614 7.11897 8501.23 -10.8409
41 8200.49 0.140557 5.35903 8499.07 -5.89387
42 8400.34 0.102218 3.97653 8497.41 -3.11585
43 8600.24 0.0733215 2.90918 8496.16 -1.60238
44 8800.16 0.0519021 2.09874 8495.24 -0.801966
45 9000.11 0.0362299 1.4933 8494.56 -0.390799
46 9200.08 0.0249671 1.04816 8494.07 -0.185503
47 9400.05 0.0170119 0.725899 8493.73 -0.0858103
48 9600.03 0.0114195 0.496051 8493.49 -0.0387061
49 9800.02 0.00755978 0.334571 8493.32 -0.0170306
50 10000 0.00496036 0.222665 8493.21 -0.00731665
51 10200 0.0032274 0.146243 8493.14 -0.00307315
52 10400 0.00204582 0.0947635 8493.09 -0.00126363
53 10600 0.00133688 0.0606033 8493.05 -0.00050895
54 10800 0.000785469 0.0381468 8493.03 -0.000201688
55 11000 0.000549152 0.0236323 8493.02 -7.88794e-05
56 11200 0.000312834 0.0143186 8493.01 -3.08084e-05
57 11400 0.000234061 0.00854106 8493.01 -1.18087e-05
58 11600 0.000155296 0.00475258 8493 -4.74526e-06
59 11800 7.63863e-05 0.00256185 8493 -1.98472e-06
60 12000 7.63863e-05 0.00113903 8493 -8.93205e-07
61 12200 7.63863e-05 0.000513866 8493 -4.00987e-07
62 12400 7.63863e-05 0.000231601 8493 -1.79145e-07
63 12600 7.63863e-05 0.00010383 8493 -7.96773e-08
64 12800 7.63863e-05 4.63316e-05 8493 -3.52877e-08
65 13000 7.63863e-05 2.05869e-05 8493 -1.55617e-08
66 13200 7.63863e-05 9.10877e-06 8493 -6.83172e-09
67 13400 7.63863e-05 4.01275e-06 8493 -2.98695e-09
68 13600 7.63863e-05 1.75997e-06 8493 -1.29904e-09
69 13800 7.63863e-05 7.68451e-07 8493 -5.62691e-10
70 14000 7.63863e-05 3.34001e-07 8493 -2.4269e-10
71 14200 7.63863e-05 1.44499e-07 8493 -1.04222e-10
72 14400 7.63863e-05 6.22216e-08 8493 -4.44667e-11
73 14600 7.63863e-05 2.66652e-08 8493 -1.89567e-11
74 14800 7.63863e-05 1.13722e-08 8493 -8.11164e-12
75 15000 7.63863e-05 4.82634e-09 8493 -3.35368e-12
76 15200 7.63863e-05 2.03814e-09 8493 -1.09221e-12
77 15400 7.63863e-05 8.56381e-10 8493 0
78 15600 7.63863e-05 3.58007e-10 8493 0
79 15800 7.63863e-05 1.48895e-10 8493 0
80 16000 7.63863e-05 6.16043e-11 8493 0
81 16200 7.63863e-05 2.53546e-11 8493 0
82 16400 7.63863e-05 1.038e-11 8493 0
83 16600 7.63863e-05 4.22671e-12 8493 0
84 16800 7.63863e-05 1.71181e-12 8493 0
85 17000 7.63863e-05 6.89502e-13 8493 0
86 17200 7.63863e-05 2.76196e-13 8493 0
87 17400 7.63863e-05 1.10023e-13 8493 0
88 17600 7.63863e-05 4.35829e-14 8493 0
89 17800 7.63863e-05 1.7167e-14 8493 0
90 18000 7.63863e-05 6.72356e-15 8493 0
91 18200 7.63863e-05 2.6183e-15 8493 0
92 18400 7.63863e-05 1.01377e-15 8493 0
93 18600 7.63863e-05 3.90289e-16 8493 0
94 18800 7.63863e-05 1.495e-16 8493 0
95 19000 7.63863e-05 5.72402e-17 8493 0
96 19200 7.63863e-05 2.26282e-17 8493 0
97 19400 7.63863e-05 1.11055e-17 8493 5.34671e-07
98 19600 7.63863e-05 4.42619e-12 8493 7.3282e-06
99 19800 7.63863e-05 2.73553e-12 8493 0.026289
