NTS LL(mkm)  STRESS(GPa)   VEL(m / s)  DENS(kg/m3)  ENERGY(J) 
0 995.618 30.3229 900 10937.6 -339605
1 1150.92 30.321 899.72 10937.4 -340183
2 1306.22 30.3166 899.428 10937 -340207
3 1461.53 30.3078 899.102 10936.3 -340138
4 1616.84 30.2918 898.707 10934.9 -339942
5 1772.18 30.2637 898.181 10932.5 -339393
6 1927.55 30.2163 897.422 10928.4 -338283
7 2082.98 30.1397 896.275 10921.9 -336677
8 2238.5 30.0207 894.518 10911.7 -334103
9 2394.17 29.8428 891.85 10896.6 -330341
10 2550.05 29.5857 887.878 10874.9 -324892
11 2706.25 29.2262 882.12 10844.7 -317436
12 2862.88 28.738 874.003 10804.1 -307350
13 3020.1 28.0925 862.875 10751.1 -294418
14 3178.09 27.2591 848.017 10684 -278238
15 3337.08 26.2051 828.662 10600.8 -258609
16 3497.31 24.8957 804.006 10500.3 -235509
17 3659.08 23.2919 773.206 10381.1 -209211
18 3822.7 21.3532 735.319 10242.4 -180060
19 3988.54 19.0277 689.324 10083.3 -149002
20 4157 16.2501 634.276 9902.97 -117175
21 4328.52 12.9159 569.755 9699.02 -86242.1
22 4503.65 8.88454 494.543 9468.82 -58953.1
23 4683.04 9.46037 401.716 9288.59 -40744.8
24 4865.91 7.32222 347.199 9153.85 -27464
25 5051.47 5.10807 290.566 9018.23 -17274.7
26 5239.82 3.39443 230.892 8886.87 -10577.1
27 5430.96 2.69824 176.424 8783.88 -6562.18
28 5624.34 2.16238 134.425 8707.14 -4128.4
29 5819.42 1.75269 102.355 8649.96 -2644.43
30 6015.79 1.18557 78.8105 8604.06 -1726.71
31 6213.21 2.09055 58.538 8584.62 -1314.24
32 6411.07 1.86419 53.859 8574.55 -1044.08
33 6609.17 1.63248 48.4819 8564.29 -800.004
34 6807.51 1.40785 42.7651 8554.37 -594.434
35 7006.07 1.19627 37.1286 8545.07 -428.861
36 7204.85 1.00178 31.7614 8536.53 -300.486
37 7403.83 0.82678 26.7729 8528.88 -204.527
38 7602.99 0.672663 22.2405 8522.16 -135.286
39 7802.31 0.539556 18.2105 8516.36 -86.9977
40 8001.76 0.426796 14.6998 8511.47 -54.4104
41 8201.32 0.333002 11.7004 8507.4 -33.1091
42 8400.99 0.256314 9.18493 8504.08 -19.6098
43 8600.72 0.194706 7.11252 8501.41 -11.309
44 8800.53 0.145988 5.43396 8499.3 -6.35285
45 9000.38 0.107965 4.09682 8497.66 -3.4775
46 9200.27 0.0789122 3.04853 8496.4 -1.8556
47 9400.19 0.0569422 2.23933 8495.45 -0.965545
48 9600.13 0.0405615 1.62409 8494.75 -0.490117
49 9800.09 0.0285114 1.16311 8494.23 -0.242786
50 10000.1 0.0198475 0.82266 8493.85 -0.117414
51 10200 0.013625 0.574692 8493.59 -0.0554641
52 10400 0.00929271 0.396645 8493.4 -0.0255977
53 10600 0.00622069 0.270409 8493.27 -0.0115504
54 10800 0.00417266 0.182098 8493.18 -0.00509988
55 11000 0.00275477 0.121144 8493.12 -0.0022049
56 11200 0.00180951 0.079565 8493.07 -0.000935011
57 11400 0.00117933 0.0515908 8493.05 -0.000389371
58 11600 0.000706697 0.0329468 8493.03 -0.000159937
59 11800 0.000470379 0.0207085 8493.02 -6.50486e-05
60 12000 0.000312834 0.0127746 8493.01 -2.62438e-05
61 12200 0.000155296 0.00775953 8493.01 -1.03313e-05
62 12400 0.000155296 0.00434039 8493 -4.26252e-06
63 12600 7.63863e-05 0.00233167 8493 -1.86455e-06
64 12800 7.63863e-05 0.00105472 8493 -8.5422e-07
65 13000 7.63863e-05 0.000485328 8493 -3.89564e-07
66 13200 7.63863e-05 0.000222172 8493 -1.7683e-07
67 13400 7.63863e-05 0.000101155 8493 -7.99608e-08
68 13600 7.63863e-05 4.58748e-05 8493 -3.60237e-08
69 13800 7.63863e-05 2.07295e-05 8493 -1.61698e-08
70 14000 7.63863e-05 9.33244e-06 8493 -7.22942e-09
71 14200 7.63863e-05 4.18558e-06 8493 -3.22005e-09
72 14400 7.63863e-05 1.87e-06 8493 -1.42892e-09
73 14600 7.63863e-05 8.32194e-07 8493 -6.31496e-10
74 14800 7.63863e-05 3.6887e-07 8493 -2.77639e-10
75 15000 7.63863e-05 1.62839e-07 8493 -1.21619e-10
76 15200 7.63863e-05 7.15888e-08 8493 -5.32814e-11
77 15400 7.63863e-05 3.13406e-08 8493 -2.31676e-11
78 15600 7.63863e-05 1.36621e-08 8493 -1.09992e-11
79 15800 7.63863e-05 5.92989e-09 8493 -5.14899e-12
80 16000 7.63863e-05 2.56254e-09 8493 0
81 16200 7.63863e-05 1.10246e-09 8493 0
82 16400 7.63863e-05 4.72174e-10 8493 0
83 16600 7.63863e-05 2.01309e-10 8493 0
84 16800 7.63863e-05 8.5432e-11 8493 0
85 17000 7.63863e-05 3.60873e-11 8493 0
86 17200 7.63863e-05 1.5172e-11 8493 0
87 17400 7.63863e-05 6.34838e-12 8493 0
88 17600 7.63863e-05 2.64359e-12 8493 0
89 17800 7.63863e-05 1.09551e-12 8493 0
90 18000 7.63863e-05 4.51763e-13 8493 0
91 18200 7.63863e-05 1.85378e-13 8493 0
92 18400 7.63863e-05 7.5692e-14 8493 0
93 18600 7.63863e-05 3.07561e-14 8493 0
94 18800 7.63863e-05 1.24474e-14 8493 0
95 19000 7.63863e-05 5.04655e-15 8493 0
96 19200 7.63863e-05 2.12363e-15 8493 0
97 19400 7.63863e-05 1.1109e-15 8493 5.34671e-07
98 19600 7.63863e-05 7.00533e-13 8493 7.3282e-06
99 19800 7.63863e-05 4.32953e-13 8493 0.0262891
