NTS LL(mkm)  STRESS(GPa)   VEL(m / s)  DENS(kg/m3)  ENERGY(J) 
0 900.823 30.2962 900 10935.3 -339026
1 1056.15 30.2926 899.659 10935 -339565
2 1211.49 30.2838 899.288 10934.2 -339494
3 1366.84 30.2659 898.843 10932.7 -339226
4 1522.21 30.2325 898.242 10929.8 -338656
5 1677.62 30.1743 897.353 10924.9 -337457
6 1833.1 30.0778 895.968 10916.6 -335291
7 1988.69 29.9255 893.791 10903.6 -332072
8 2144.48 29.6957 890.417 10884.1 -327165
9 2300.54 29.3625 885.331 10856.1 -320200
10 2457 28.8965 877.903 10817.2 -310562
11 2614.03 28.2652 867.406 10765.2 -297878
12 2771.82 27.4344 853.025 10698 -281569
13 2930.59 26.3675 833.892 10613.5 -261575
14 3090.64 25.0262 809.1 10510.2 -237780
15 3252.25 23.3695 777.719 10386.7 -210414
16 3415.79 21.3529 738.755 10242.4 -180049
17 3581.63 18.9238 691.046 10076.4 -147724
18 3750.2 16.0267 633.353 9888.89 -114810
19 3921.97 12.5485 565.375 9677.33 -83269.8
20 4097.49 8.30982 487.729 9437.35 -55916.8
21 4277.48 9.11716 394.411 9266.69 -38380.6
22 4460.78 6.88857 339.762 9126.98 -25181.9
23 4646.89 4.59217 280.807 8987.21 -15423.6
24 4835.89 3.20124 218.591 8857.95 -9368.36
25 5027.65 2.53493 165.979 8760.26 -5761.52
26 5221.55 2.02614 125.765 8687.99 -3596.54
27 5417.06 1.603 94.5799 8634.84 -2300.05
28 5613.77 1.03517 68.6883 8592.93 -1559.85
29 5811.45 1.99584 59.3753 8580.4 -1197.25
30 6009.41 1.73604 52.1019 8568.87 -904.911
31 6207.64 1.4887 45.5854 8557.94 -664.838
32 6406.12 1.25631 39.3793 8547.7 -472.995
33 6604.84 1.043 33.4794 8538.34 -325.758
34 6803.78 0.852193 28 8529.99 -217.301
35 7002.91 0.685458 23.0416 8522.72 -140.478
36 7202.22 0.542855 18.6628 8516.51 -88.0554
37 7401.66 0.423416 14.8822 8511.32 -53.5455
38 7601.23 0.325374 11.6867 8507.07 -31.6024
39 7800.9 0.246402 9.03983 8503.64 -18.1113
40 8000.65 0.183846 6.88923 8500.94 -10.0834
41 8200.46 0.135283 5.1739 8498.84 -5.45628
42 8400.33 0.0981241 3.83014 8497.23 -2.87081
43 8600.23 0.0702505 2.7954 8496.03 -1.4693
44 8800.16 0.0495396 2.01178 8495.14 -0.731829
45 9000.11 0.0344972 1.42801 8494.49 -0.354883
46 9200.07 0.0237069 0.999838 8494.02 -0.167638
47 9400.05 0.0160667 0.690746 8493.69 -0.0771654
48 9600.03 0.0107893 0.470835 8493.46 -0.034637
49 9800.02 0.00716593 0.316749 8493.31 -0.0151673
50 10000 0.00464528 0.21026 8493.2 -0.00648574
51 10200 0.00299109 0.137742 8493.13 -0.0027116
52 10400 0.00196705 0.0890353 8493.08 -0.00110934
53 10600 0.0012581 0.0567567 8493.05 -0.000444985
54 10800 0.000785469 0.0355962 8493.03 -0.000175936
55 11000 0.000470379 0.0219869 8493.02 -6.87119e-05
56 11200 0.000312834 0.0132678 8493.01 -2.67713e-05
57 11400 0.000155296 0.00791217 8493.01 -1.01674e-05
58 11600 0.000155296 0.00438376 8493 -3.96746e-06
59 11800 7.63863e-05 0.00222146 8493 -1.74824e-06
60 12000 7.63863e-05 0.00100141 8493 -7.88964e-07
61 12200 7.63863e-05 0.000454583 8493 -3.53616e-07
62 12400 7.63863e-05 0.000204517 8493 -1.57709e-07
63 12600 7.63863e-05 9.15069e-05 8493 -7.00417e-08
64 12800 7.63863e-05 4.07725e-05 8493 -3.09768e-08
65 13000 7.63863e-05 1.80918e-05 8493 -1.3641e-08
66 13200 7.63863e-05 7.99344e-06 8493 -5.9796e-09
67 13400 7.63863e-05 3.51625e-06 8493 -2.6104e-09
68 13600 7.63863e-05 1.53989e-06 8493 -1.13357e-09
69 13800 7.63863e-05 6.71332e-07 8493 -4.9022e-10
70 14000 7.63863e-05 2.91332e-07 8493 -2.11018e-10
71 14200 7.63863e-05 1.25837e-07 8493 -9.05707e-11
72 14400 7.63863e-05 5.40971e-08 8493 -3.85375e-11
73 14600 7.63863e-05 2.31446e-08 8493 -1.63812e-11
74 14800 7.63863e-05 9.85394e-09 8493 -6.94238e-12
75 15000 7.63863e-05 4.1747e-09 8493 -3.19765e-12
76 15200 7.63863e-05 1.75982e-09 8493 -5.45142e-13
77 15400 7.63863e-05 7.38101e-10 8493 0
78 15600 7.63863e-05 3.07991e-10 8493 0
79 15800 7.63863e-05 1.27853e-10 8493 0
80 16000 7.63863e-05 5.2797e-11 8493 0
81 16200 7.63863e-05 2.16875e-11 8493 0
82 16400 7.63863e-05 8.86104e-12 8493 0
83 16600 7.63863e-05 3.60093e-12 8493 0
84 16800 7.63863e-05 1.45538e-12 8493 0
85 17000 7.63863e-05 5.8499e-13 8493 0
86 17200 7.63863e-05 2.33835e-13 8493 0
87 17400 7.63863e-05 9.29478e-14 8493 0
88 17600 7.63863e-05 3.67383e-14 8493 0
89 17800 7.63863e-05 1.44388e-14 8493 0
90 18000 7.63863e-05 5.64234e-15 8493 0
91 18200 7.63863e-05 2.19222e-15 8493 0
92 18400 7.63863e-05 8.46846e-16 8493 0
93 18600 7.63863e-05 3.25249e-16 8493 0
94 18800 7.63863e-05 1.24291e-16 8493 0
95 19000 7.63863e-05 4.74691e-17 8493 0
96 19200 7.63863e-05 1.87179e-17 8493 0
97 19400 7.63863e-05 9.16001e-18 8493 5.34671e-07
98 19600 7.63863e-05 4.75707e-12 8493 7.3282e-06
99 19800 7.63863e-05 2.94003e-12 8493 0.026289
