NTS LL(mkm)  STRESS(GPa)   VEL(m / s)  DENS(kg/m3)  ENERGY(J) 
0 991.032 30.3217 900 10937.5 -339580
1 1146.33 30.3198 899.718 10937.3 -340156
2 1301.64 30.3152 899.422 10936.9 -340177
3 1456.94 30.3062 899.092 10936.2 -340102
4 1612.26 30.2896 898.691 10934.7 -339893
5 1767.6 30.2604 898.153 10932.2 -339324
6 1922.98 30.2114 897.373 10928 -338177
7 2078.41 30.1322 896.191 10921.3 -336516
8 2233.95 30.0094 894.379 10910.8 -333859
9 2389.63 29.8259 891.626 10895.2 -329980
10 2545.53 29.5612 887.532 10872.8 -324374
11 2701.76 29.1915 881.602 10841.8 -316715
12 2858.43 28.6902 873.253 10800.1 -306378
13 3015.7 28.0284 861.822 10745.9 -293151
14 3173.77 27.175 846.581 10677.3 -276638
15 3332.86 26.0971 826.752 10592.4 -256652
16 3493.22 24.7595 801.527 10490 -233191
17 3655.14 23.1223 770.062 10368.7 -206547
18 3818.96 21.1443 731.417 10227.8 -177099
19 3985.04 18.7731 684.503 10066.4 -145846
20 4153.78 15.9457 628.178 9883.8 -114025
21 4325.64 12.5561 562.101 9677.77 -83362.8
22 4501.15 8.43196 486.379 9444.01 -56557.4
23 4681.01 9.24254 394.476 9274.71 -39239
24 4864.16 7.09275 341.504 9139.62 -26239.9
25 5050.01 4.86579 284.686 9003.64 -16380.4
26 5238.66 3.30992 224.51 8874.14 -10036.7
27 5430.07 2.63215 171.387 8774.3 -6231.19
28 5623.66 2.11127 130.504 8699.93 -3925.21
29 5818.9 1.71489 99.0914 8644.75 -2523.83
30 6015.39 1.12732 76.1402 8599.75 -1659.54
31 6212.91 2.06841 57.7247 8583.63 -1286.42
32 6410.8 1.83703 53.4201 8573.35 -1013.79
33 6608.92 1.60389 47.8546 8563.03 -772.084
34 6807.29 1.37978 42.062 8553.14 -570.888
35 7005.88 1.16957 36.4277 8543.89 -409.882
36 7204.69 0.976935 31.0874 8535.45 -285.76
37 7403.7 0.804266 26.1401 8527.9 -193.518
38 7602.88 0.652644 21.6599 8521.29 -127.347
39 7802.21 0.522116 17.6896 8515.61 -81.4667
40 8001.68 0.41194 14.2423 8510.82 -50.6836
41 8201.27 0.320577 11.3065 8506.86 -30.6779
42 8400.94 0.246087 8.85224 8503.63 -18.0726
43 8600.69 0.186443 6.83649 8501.05 -10.3662
44 8800.5 0.139376 5.20899 8499.01 -5.79156
45 9000.36 0.102848 3.91648 8497.44 -3.15288
46 9200.25 0.0748963 2.90633 8496.23 -1.67309
47 9400.18 0.0538709 2.12894 8495.32 -0.865752
48 9600.12 0.0382776 1.53975 8494.65 -0.436993
49 9800.08 0.0268574 1.09958 8494.16 -0.21525
50 10000.1 0.018666 0.775491 8493.8 -0.103512
51 10200 0.0127585 0.540193 8493.55 -0.0486217
52 10400 0.00866256 0.371752 8493.37 -0.0223131
53 10600 0.00582684 0.252683 8493.25 -0.0100122
54 10800 0.00385757 0.169656 8493.16 -0.0043962
55 11000 0.00251846 0.112517 8493.11 -0.00189042
56 11200 0.00165196 0.07366 8493.07 -0.000797523
57 11400 0.00102179 0.0476021 8493.04 -0.000330513
58 11600 0.000706697 0.0302971 8493.03 -0.000135022
59 11800 0.000391606 0.0189888 8493.02 -5.44421e-05
60 12000 0.000234061 0.0116373 8493.01 -2.1787e-05
61 12200 0.000155296 0.0068855 8493.01 -8.87463e-06
62 12400 7.63863e-05 0.00401524 8493 -3.46266e-06
63 12600 7.63863e-05 0.0019447 8493 -1.60325e-06
64 12800 7.63863e-05 0.000909067 8493 -7.33281e-07
65 13000 7.63863e-05 0.000417579 8493 -3.33478e-07
66 13200 7.63863e-05 0.000190452 8493 -1.51099e-07
67 13400 7.63863e-05 8.65383e-05 8493 -6.82225e-08
68 13600 7.63863e-05 3.9188e-05 8493 -3.06883e-08
69 13800 7.63863e-05 1.76815e-05 8493 -1.37534e-08
70 14000 7.63863e-05 7.94781e-06 8493 -6.13882e-09
71 14200 7.63863e-05 3.55886e-06 8493 -2.72983e-09
72 14400 7.63863e-05 1.5874e-06 8493 -1.2094e-09
73 14600 7.63863e-05 7.05248e-07 8493 -5.33671e-10
74 14800 7.63863e-05 3.12065e-07 8493 -2.34109e-10
75 15000 7.63863e-05 1.3752e-07 8493 -1.02271e-10
76 15200 7.63863e-05 6.03492e-08 8493 -4.48558e-11
77 15400 7.63863e-05 2.63715e-08 8493 -1.93458e-11
78 15600 7.63863e-05 1.14743e-08 8493 -9.59489e-12
79 15800 7.63863e-05 4.97078e-09 8493 -3.74472e-12
80 16000 7.63863e-05 2.14387e-09 8493 0
81 16200 7.63863e-05 9.20503e-10 8493 0
82 16400 7.63863e-05 3.93442e-10 8493 0
83 16600 7.63863e-05 1.67395e-10 8493 0
84 16800 7.63863e-05 7.08898e-11 8493 0
85 17000 7.63863e-05 2.98804e-11 8493 0
86 17200 7.63863e-05 1.2535e-11 8493 0
87 17400 7.63863e-05 5.23336e-12 8493 0
88 17600 7.63863e-05 2.17436e-12 8493 0
89 17800 7.63863e-05 8.98992e-13 8493 0
90 18000 7.63863e-05 3.69859e-13 8493 0
91 18200 7.63863e-05 1.5141e-13 8493 0
92 18400 7.63863e-05 6.16737e-14 8493 0
93 18600 7.63863e-05 2.49987e-14 8493 0
94 18800 7.63863e-05 1.0092e-14 8493 0
95 19000 7.63863e-05 4.08094e-15 8493 0
96 19200 7.63863e-05 1.71233e-15 8493 0
97 19400 7.63863e-05 8.9319e-16 8493 5.34671e-07
98 19600 7.63863e-05 7.68565e-13 8493 7.3282e-06
99 19800 7.63863e-05 4.74999e-13 8493 0.0262891
