NTS LL(mkm)  STRESS(GPa)   VEL(m / s)  DENS(kg/m3)  ENERGY(J) 
0 905.41 30.2977 900 10935.4 -339057
1 1060.74 30.2942 899.663 10935.1 -339599
2 1216.07 30.2857 899.297 10934.4 -339534
3 1371.42 30.2684 898.859 10932.9 -339280
4 1526.78 30.2362 898.272 10930.2 -338735
5 1682.19 30.18 897.407 10925.3 -337580
6 1837.66 30.0867 896.065 10917.4 -335484
7 1993.25 29.9394 893.956 10904.8 -332370
8 2149.02 29.7168 890.689 10885.9 -327611
9 2305.05 29.3933 885.759 10858.7 -320845
10 2461.48 28.9402 878.551 10820.8 -311460
11 2618.46 28.3256 868.35 10770.2 -299082
12 2776.17 27.5154 854.354 10704.5 -283126
13 2934.85 26.4733 835.706 10621.8 -263517
14 3094.77 25.1617 811.506 10520.5 -240116
15 3256.22 23.54 780.823 10399.2 -213127
16 3419.56 21.5649 742.655 10257.3 -183089
17 3585.16 19.1843 695.901 10093.8 -150982
18 3753.44 16.3394 639.542 9908.62 -118065
19 3924.87 12.9172 573.289 9699.09 -86218.8
20 4100 8.77073 496.296 9462.56 -58321.6
21 4279.51 9.34124 401.663 9280.97 -39911.3
22 4462.53 7.12637 345.575 9141.7 -26415.8
23 4648.33 4.84298 286.898 9002.26 -16299
24 4837.02 3.28578 225.103 8870.53 -9886.95
25 5028.51 2.60032 171.018 8769.68 -6075.89
26 5222.2 2.07738 129.523 8695.17 -3791.25
27 5417.55 1.67831 97.4523 8640.37 -2421.51
28 5614.14 1.07322 73.4583 8595.75 -1599.98
29 5811.75 2.02578 58.0002 8581.74 -1233.59
30 6009.68 1.76836 52.7937 8570.3 -939.03
31 6207.87 1.51973 46.3963 8559.31 -692.914
32 6406.32 1.28582 40.154 8549 -495.527
33 6605.01 1.0705 34.2223 8539.55 -343.176
34 6803.92 0.877132 28.7002 8531.08 -230.22
35 7003.03 0.707515 23.6847 8523.68 -149.683
36 7202.31 0.561943 19.2385 8517.34 -94.3701
37 7401.74 0.439608 15.3857 8512.02 -57.7217
38 7601.29 0.338821 12.1173 8507.65 -34.269
39 7800.95 0.257337 9.40066 8504.12 -19.7569
40 8000.69 0.192581 7.18556 8501.32 -11.066
41 8200.49 0.142131 5.41276 8499.14 -6.02433
42 8400.35 0.103399 4.01908 8497.46 -3.18914
43 8600.24 0.0742664 2.9423 8496.2 -1.64232
44 8800.17 0.0525321 2.12409 8495.27 -0.823091
45 9000.11 0.0367024 1.5124 8494.58 -0.401648
46 9200.08 0.0252822 1.06231 8494.09 -0.190917
47 9400.05 0.0172482 0.736201 8493.74 -0.08844
48 9600.03 0.011577 0.503457 8493.5 -0.0399482
49 9800.02 0.00771732 0.339812 8493.33 -0.0176017
50 10000 0.00503914 0.226308 8493.22 -0.00757332
51 10200 0.00330617 0.148768 8493.14 -0.00318478
52 10400 0.0021246 0.0964827 8493.09 -0.00131065
53 10600 0.00133688 0.0617081 8493.06 -0.000529112
54 10800 0.000864242 0.0389136 8493.03 -0.000209763
55 11000 0.000549152 0.0240988 8493.02 -8.2309e-05
56 11200 0.000312834 0.0146645 8493.01 -3.2033e-05
57 11400 0.000234061 0.00870253 8493.01 -1.24017e-05
58 11600 0.000155296 0.00489051 8493 -4.97441e-06
59 11800 7.63863e-05 0.00265558 8493 -2.05849e-06
60 12000 7.63863e-05 0.00118218 8493 -9.2567e-07
61 12200 7.63863e-05 0.000532454 8493 -4.15623e-07
62 12400 7.63863e-05 0.000239964 8493 -1.85769e-07
63 12600 7.63863e-05 0.000107633 8493 -8.26588e-08
64 12800 7.63863e-05 4.80503e-05 8493 -3.6623e-08
65 13000 7.63863e-05 2.13592e-05 8493 -1.61571e-08
66 13200 7.63863e-05 9.4543e-06 8493 -7.09617e-09
67 13400 7.63863e-05 4.1667e-06 8493 -3.10389e-09
68 13600 7.63863e-05 1.82827e-06 8493 -1.35052e-09
69 13800 7.63863e-05 7.9862e-07 8493 -5.85236e-10
70 14000 7.63863e-05 3.47268e-07 8493 -2.52441e-10
71 14200 7.63863e-05 1.50307e-07 8493 -1.08512e-10
72 14400 7.63863e-05 6.47527e-08 8493 -4.6339e-11
73 14600 7.63863e-05 2.77631e-08 8493 -1.97369e-11
74 14800 7.63863e-05 1.18462e-08 8493 -8.4237e-12
75 15000 7.63863e-05 5.02998e-09 8493 -3.50972e-12
76 15200 7.63863e-05 2.12521e-09 8493 -1.24824e-12
77 15400 7.63863e-05 8.93425e-10 8493 0
78 15600 7.63863e-05 3.73689e-10 8493 0
79 15800 7.63863e-05 1.555e-10 8493 0
80 16000 7.63863e-05 6.43722e-11 8493 0
81 16200 7.63863e-05 2.65085e-11 8493 0
82 16400 7.63863e-05 1.08585e-11 8493 0
83 16600 7.63863e-05 4.4241e-12 8493 0
84 16800 7.63863e-05 1.7928e-12 8493 0
85 17000 7.63863e-05 7.22551e-13 8493 0
86 17200 7.63863e-05 2.89609e-13 8493 0
87 17400 7.63863e-05 1.15437e-13 8493 0
88 17600 7.63863e-05 4.57558e-14 8493 0
89 17800 7.63863e-05 1.80343e-14 8493 0
90 18000 7.63863e-05 7.06777e-15 8493 0
91 18200 7.63863e-05 2.75413e-15 8493 0
92 18400 7.63863e-05 1.06707e-15 8493 0
93 18600 7.63863e-05 4.11083e-16 8493 0
94 18800 7.63863e-05 1.57568e-16 8493 0
95 19000 7.63863e-05 6.03743e-17 8493 0
96 19200 7.63863e-05 2.38848e-17 8493 0
97 19400 7.63863e-05 1.17313e-17 8493 5.34671e-07
98 19600 7.63863e-05 4.33595e-12 8493 7.3282e-06
99 19800 7.63863e-05 2.67976e-12 8493 0.026289
