NTS LL(mkm)  STRESS(GPa)   VEL(m / s)  DENS(kg/m3)  ENERGY(J) 
0 993.58 30.3224 900 10937.5 -339594
1 1148.88 30.3204 899.719 10937.4 -340171
2 1304.18 30.316 899.425 10937 -340194
3 1459.49 30.3071 899.098 10936.2 -340122
4 1614.81 30.2908 898.7 10934.8 -339920
5 1770.15 30.2622 898.169 10932.4 -339363
6 1925.52 30.2141 897.4 10928.3 -338236
7 2080.95 30.1364 896.238 10921.6 -336606
8 2236.48 30.0157 894.457 10911.3 -333995
9 2392.15 29.8353 891.751 10896 -330182
10 2548.04 29.5749 887.726 10873.9 -324664
11 2704.25 29.2109 881.892 10843.4 -317118
12 2860.9 28.7169 873.672 10802.3 -306921
13 3018.14 28.0642 862.41 10748.8 -293859
14 3176.17 27.222 847.383 10681 -277531
15 3335.2 26.1574 827.819 10597.1 -257743
16 3495.49 24.8355 802.912 10495.7 -234483
17 3657.33 23.217 771.818 10375.6 -208031
18 3821.04 21.2609 733.595 10235.9 -178748
19 3986.98 18.9153 687.187 10075.8 -147603
20 4155.56 16.1158 631.576 9894.5 -115776
21 4327.23 12.7564 566.405 9689.58 -84954.7
22 4502.54 8.68303 490.992 9457.75 -57870
23 4682.14 9.36309 398.429 9282.37 -40065.9
24 4865.13 7.22028 344.62 9147.52 -26915.6
25 5050.82 5.00073 287.948 9011.76 -16872.8
26 5239.3 3.35634 228.052 8881.17 -10333.6
27 5430.56 2.66885 174.172 8779.59 -6412.96
28 5624.03 2.13959 132.663 8703.91 -4036.97
29 5819.19 1.73573 100.897 8647.63 -2590.11
30 6015.61 1.15898 77.6697 8602.09 -1695.66
31 6213.08 2.08049 58.1182 8584.17 -1301.54
32 6410.95 1.85217 53.649 8574.02 -1030.69
33 6609.06 1.61983 48.2072 8563.73 -787.58
34 6807.41 1.39534 42.4547 8553.82 -583.909
35 7005.99 1.18445 36.8173 8544.54 -420.361
36 7204.78 0.990729 31.4615 8536.05 -293.881
37 7403.77 0.816739 26.4912 8528.44 -199.581
38 7602.94 0.663713 21.9817 8521.77 -131.713
39 7802.27 0.531779 17.9781 8516.03 -84.5046
40 8001.72 0.420193 14.4955 8511.18 -52.7279
41 8201.3 0.327419 11.5244 8507.16 -32.0097
42 8400.96 0.251751 9.03613 8503.88 -18.9135
43 8600.71 0.191007 6.98893 8501.25 -10.8813
44 8800.51 0.142997 5.33316 8499.17 -6.09782
45 9000.37 0.105682 4.01595 8497.56 -3.32977
46 9200.26 0.0771011 2.98469 8496.33 -1.77242
47 9400.18 0.0555247 2.18974 8495.4 -0.919992
48 9600.13 0.0395377 1.58617 8494.7 -0.465831
49 9800.09 0.0278026 1.13453 8494.2 -0.230176
50 10000.1 0.0192961 0.801427 8493.83 -0.111036
51 10200 0.0132311 0.559143 8493.57 -0.0523192
52 10400 0.00897763 0.38541 8493.39 -0.024086
53 10600 0.00606315 0.262402 8493.26 -0.0108416
54 10800 0.00401511 0.17648 8493.17 -0.00477491
55 11000 0.00259723 0.117233 8493.11 -0.00205979
56 11200 0.00173074 0.076896 8493.07 -0.00087145
57 11400 0.00110056 0.0497653 8493.05 -0.000362469
58 11600 0.000706697 0.0317472 8493.03 -0.000148609
59 11800 0.000470379 0.019944 8493.02 -6.01508e-05
60 12000 0.000312834 0.0122595 8493.01 -2.41789e-05
61 12200 0.000155296 0.00736994 8493.01 -9.6493e-06
62 12400 0.000155296 0.0042099 8493 -3.84073e-06
63 12600 7.63863e-05 0.0021359 8493 -1.74062e-06
64 12800 7.63863e-05 0.000984262 8493 -7.98276e-07
65 13000 7.63863e-05 0.000454032 8493 -3.63619e-07
66 13200 7.63863e-05 0.000207517 8493 -1.64909e-07
67 13400 7.63863e-05 9.43863e-05 8493 -7.4519e-08
68 13600 7.63863e-05 4.27758e-05 8493 -3.35492e-08
69 13800 7.63863e-05 1.93163e-05 8493 -1.50487e-08
70 14000 7.63863e-05 8.69023e-06 8493 -6.72328e-09
71 14200 7.63863e-05 3.89478e-06 8493 -2.99242e-09
72 14400 7.63863e-05 1.73882e-06 8493 -1.32689e-09
73 14600 7.63863e-05 7.73241e-07 8493 -5.86016e-10
74 14800 7.63863e-05 3.42479e-07 8493 -2.57513e-10
75 15000 7.63863e-05 1.5107e-07 8493 -1.12569e-10
76 15200 7.63863e-05 6.63623e-08 8493 -4.93807e-11
77 15400 7.63863e-05 2.90288e-08 8493 -2.12972e-11
78 15600 7.63863e-05 1.26438e-08 8493 -1.0375e-11
79 15800 7.63863e-05 5.48324e-09 8493 -4.52487e-12
80 16000 7.63863e-05 2.36747e-09 8493 0
81 16200 7.63863e-05 1.01764e-09 8493 0
82 16400 7.63863e-05 4.35453e-10 8493 0
83 16600 7.63863e-05 1.85483e-10 8493 0
84 16800 7.63863e-05 7.86422e-11 8493 0
85 17000 7.63863e-05 3.31877e-11 8493 0
86 17200 7.63863e-05 1.39394e-11 8493 0
87 17400 7.63863e-05 5.8269e-12 8493 0
88 17600 7.63863e-05 2.42401e-12 8493 0
89 17800 7.63863e-05 1.00349e-12 8493 0
90 18000 7.63863e-05 4.13389e-13 8493 0
91 18200 7.63863e-05 1.69453e-13 8493 0
92 18400 7.63863e-05 6.91161e-14 8493 0
93 18600 7.63863e-05 2.80536e-14 8493 0
94 18800 7.63863e-05 1.13411e-14 8493 0
95 19000 7.63863e-05 4.5927e-15 8493 0
96 19200 7.63863e-05 1.93017e-15 8493 0
97 19400 7.63863e-05 1.00842e-15 8493 5.34671e-07
98 19600 7.63863e-05 7.29993e-13 8493 7.3282e-06
99 19800 7.63863e-05 4.5116e-13 8493 0.0262891
