NTS LL(mkm)  STRESS(GPa)   VEL(m / s)  DENS(kg/m3)  ENERGY(J) 
0 901.332 30.2964 900 10935.3 -339030
1 1056.66 30.2928 899.66 10935 -339569
2 1212 30.284 899.289 10934.3 -339499
3 1367.35 30.2662 898.844 10932.7 -339232
4 1522.72 30.233 898.245 10929.9 -338665
5 1678.12 30.1749 897.359 10924.9 -337471
6 1833.6 30.0788 895.979 10916.7 -335312
7 1989.2 29.9271 893.81 10903.8 -332105
8 2144.98 29.698 890.448 10884.3 -327215
9 2301.04 29.3659 885.379 10856.4 -320273
10 2457.5 28.9014 877.976 10817.6 -310663
11 2614.52 28.272 867.512 10765.8 -298013
12 2772.3 27.4435 853.175 10698.7 -281744
13 2931.07 26.3794 834.096 10614.4 -261793
14 3091.09 25.0414 809.371 10511.3 -238042
15 3252.69 23.3886 778.068 10388.1 -210717
16 3416.2 21.3767 739.192 10244 -180388
17 3582.02 18.9531 691.588 10078.4 -148087
18 3750.56 16.0619 634.043 9891.11 -115173
19 3922.29 12.5897 566.276 9679.75 -83594.6
20 4097.77 8.36078 488.722 9440.13 -56175.7
21 4277.7 9.14157 395.179 9268.25 -38546.9
22 4460.97 6.91522 340.389 9128.62 -25317.2
23 4647.05 4.6204 281.485 8988.88 -15518.9
24 4836.01 3.2106 219.313 8859.32 -9424.61
25 5027.74 2.54204 166.533 8761.29 -5795.57
26 5221.62 2.0318 126.176 8688.78 -3617.65
27 5417.11 1.61169 94.863 8635.47 -2313.79
28 5613.81 1.03841 69.3223 8593.17 -1563.22
29 5811.48 1.99974 59.1097 8580.58 -1201.96
30 6009.44 1.73963 52.2088 8569.03 -908.688
31 6207.67 1.49214 45.6762 8558.09 -667.92
32 6406.14 1.25952 39.465 8547.85 -475.467
33 6604.86 1.04605 33.5618 8538.48 -327.664
34 6803.8 0.854938 28.0776 8530.11 -218.711
35 7002.93 0.687892 23.1128 8522.82 -141.479
36 7202.23 0.544976 18.7264 8516.6 -88.7404
37 7401.67 0.425224 14.9377 8511.4 -53.9972
38 7601.24 0.326868 11.7341 8507.13 -31.89
39 7800.91 0.247582 9.07947 8503.7 -18.2883
40 8000.66 0.184869 6.92176 8500.98 -10.1888
41 8200.47 0.135991 5.20006 8498.87 -5.51702
42 8400.33 0.0987539 3.85082 8497.26 -2.90474
43 8600.23 0.0706442 2.81143 8496.05 -1.48769
44 8800.16 0.0498546 2.02404 8495.15 -0.741496
45 9000.11 0.0347335 1.43719 8494.5 -0.359822
46 9200.07 0.0238644 1.00663 8494.03 -0.170089
47 9400.05 0.0162243 0.695685 8493.7 -0.0783472
48 9600.03 0.0108681 0.474361 8493.47 -0.0351931
49 9800.02 0.00716593 0.319234 8493.31 -0.0154226
50 10000 0.00472405 0.212012 8493.2 -0.00659849
51 10200 0.00306986 0.138932 8493.13 -0.00276038
52 10400 0.00196705 0.0898174 8493.08 -0.00113059
53 10600 0.0012581 0.0572913 8493.05 -0.000453898
54 10800 0.000785469 0.0359563 8493.03 -0.000179516
55 11000 0.000470379 0.0222231 8493.02 -7.00866e-05
56 11200 0.000312834 0.0134106 8493.01 -2.73321e-05
57 11400 0.000155296 0.00801371 8493.01 -1.03517e-05
58 11600 0.000155296 0.0044204 8493 -4.07902e-06
59 11800 7.63863e-05 0.00227304 8493 -1.77974e-06
60 12000 7.63863e-05 0.00101947 8493 -8.03019e-07
61 12200 7.63863e-05 0.000462544 8493 -3.60039e-07
62 12400 7.63863e-05 0.000208194 8493 -1.60612e-07
63 12600 7.63863e-05 9.31775e-05 8493 -7.13455e-08
64 12800 7.63863e-05 4.1525e-05 8493 -3.15597e-08
65 13000 7.63863e-05 1.84294e-05 8493 -1.39005e-08
66 13200 7.63863e-05 8.14423e-06 8493 -6.09467e-09
67 13400 7.63863e-05 3.58334e-06 8493 -2.66118e-09
68 13600 7.63863e-05 1.56961e-06 8493 -1.15596e-09
69 13800 7.63863e-05 6.84438e-07 8493 -4.99971e-10
70 14000 7.63863e-05 2.97086e-07 8493 -2.1531e-10
71 14200 7.63863e-05 1.28352e-07 8493 -9.23641e-11
72 14400 7.63863e-05 5.51913e-08 8493 -3.93177e-11
73 14600 7.63863e-05 2.36184e-08 8493 -1.67723e-11
74 14800 7.63863e-05 1.00581e-08 8493 -7.09841e-12
75 15000 7.63863e-05 4.26227e-09 8493 -3.19765e-12
76 15200 7.63863e-05 1.7972e-09 8493 -6.24121e-13
77 15400 7.63863e-05 7.53971e-10 8493 0
78 15600 7.63863e-05 3.14697e-10 8493 0
79 15800 7.63863e-05 1.30672e-10 8493 0
80 16000 7.63863e-05 5.39759e-11 8493 0
81 16200 7.63863e-05 2.21779e-11 8493 0
82 16400 7.63863e-05 9.06401e-12 8493 0
83 16600 7.63863e-05 3.68448e-12 8493 0
84 16800 7.63863e-05 1.48959e-12 8493 0
85 17000 7.63863e-05 5.98919e-13 8493 0
86 17200 7.63863e-05 2.39475e-13 8493 0
87 17400 7.63863e-05 9.52193e-14 8493 0
88 17600 7.63863e-05 3.7648e-14 8493 0
89 17800 7.63863e-05 1.48011e-14 8493 0
90 18000 7.63863e-05 5.78576e-15 8493 0
91 18200 7.63863e-05 2.24868e-15 8493 0
92 18400 7.63863e-05 8.68945e-16 8493 0
93 18600 7.63863e-05 3.33851e-16 8493 0
94 18800 7.63863e-05 1.27619e-16 8493 0
95 19000 7.63863e-05 4.87596e-17 8493 0
96 19200 7.63863e-05 1.92321e-17 8493 0
97 19400 7.63863e-05 9.41715e-18 8493 5.34671e-07
98 19600 7.63863e-05 4.70833e-12 8493 7.3282e-06
99 19800 7.63863e-05 2.90991e-12 8493 0.026289
