NTS LL(mkm)  STRESS(GPa)   VEL(m / s)  DENS(kg/m3)  ENERGY(J) 
0 990.522 30.3216 900 10937.5 -339577
1 1145.82 30.3197 899.718 10937.3 -340153
2 1301.13 30.3151 899.422 10936.9 -340174
3 1456.43 30.306 899.091 10936.1 -340098
4 1611.75 30.2893 898.689 10934.7 -339888
5 1767.1 30.2601 898.149 10932.2 -339316
6 1922.47 30.2108 897.367 10928 -338165
7 2077.91 30.1314 896.182 10921.2 -336498
8 2233.44 30.0081 894.363 10910.7 -333831
9 2389.12 29.824 891.601 10895 -329939
10 2545.03 29.5584 887.493 10872.6 -324315
11 2701.26 29.1875 881.543 10841.4 -316634
12 2857.93 28.6848 873.168 10799.7 -306268
13 3015.22 28.0211 861.703 10745.3 -293009
14 3173.29 27.1656 846.419 10676.5 -276458
15 3332.39 26.085 826.537 10591.5 -256432
16 3492.76 24.7442 801.247 10488.8 -232931
17 3654.71 23.1033 769.708 10367.3 -206249
18 3818.55 21.1208 730.978 10226.1 -176769
19 3984.65 18.7443 683.964 10064.5 -145493
20 4153.42 15.9114 627.497 9881.65 -113674
21 4325.32 12.5159 561.225 9675.4 -83046.6
22 4500.88 8.38195 485.428 9441.28 -56300.8
23 4680.79 9.2194 393.712 9273.19 -39076.4
24 4863.96 7.06705 340.895 9138.04 -26106
25 5049.85 4.83881 284.033 9002.01 -16283.3
26 5238.54 3.30056 223.802 8872.74 -9978.34
27 5429.98 2.62483 170.834 8773.25 -6195.47
28 5623.59 2.10556 130.079 8699.13 -3903.18
29 5818.85 1.71067 98.7337 8644.18 -2510.75
30 6015.35 1.1212 75.8157 8599.3 -1652.7
31 6212.88 2.06607 57.668 8583.53 -1283.46
32 6410.77 1.83391 53.3778 8573.21 -1010.38
33 6608.9 1.60069 47.7824 8562.88 -768.991
34 6807.27 1.37665 41.9828 8553 -568.303
35 7005.86 1.16668 36.3497 8543.76 -407.805
36 7204.67 0.974191 31.0127 8535.33 -284.154
37 7403.68 0.801756 26.0701 8527.79 -192.321
38 7602.87 0.650445 21.5958 8521.19 -126.486
39 7802.2 0.52023 17.6322 8515.52 -80.8695
40 8001.68 0.410289 14.1919 8510.75 -50.2825
41 8201.26 0.31924 11.2632 8506.8 -30.4171
42 8400.93 0.244985 8.81573 8503.58 -17.9082
43 8600.69 0.185499 6.80626 8501.01 -10.2658
44 8800.5 0.138668 5.18441 8498.98 -5.73192
45 9000.36 0.102297 3.8968 8497.41 -3.11851
46 9200.25 0.0745026 2.89084 8496.21 -1.65383
47 9400.18 0.0535559 2.11693 8495.31 -0.855258
48 9600.12 0.0380413 1.5306 8494.64 -0.431425
49 9800.08 0.0266999 1.0927 8494.15 -0.212373
50 10000.1 0.0185085 0.770389 8493.8 -0.102065
51 10200 0.0126797 0.536465 8493.55 -0.047912
52 10400 0.00858379 0.36907 8493.37 -0.0219735
53 10600 0.00574807 0.250777 8493.25 -0.00985368
54 10800 0.0037788 0.168308 8493.16 -0.0043245
55 11000 0.00251846 0.111611 8493.11 -0.00185791
56 11200 0.00165196 0.0730303 8493.07 -0.000783224
57 11400 0.00102179 0.0471573 8493.04 -0.000324649
58 11600 0.000706697 0.0300347 8493.03 -0.000132364
59 11800 0.000391606 0.0187765 8493.02 -5.34883e-05
60 12000 0.000234061 0.0115163 8493.01 -2.1418e-05
61 12200 0.000155296 0.00680921 8493.01 -8.72678e-06
62 12400 7.63863e-05 0.00396772 8493 -3.41019e-06
63 12600 7.63863e-05 0.00191712 8493 -1.57705e-06
64 12800 7.63863e-05 0.000894624 8493 -7.2086e-07
65 13000 7.63863e-05 0.000410588 8493 -3.27741e-07
66 13200 7.63863e-05 0.0001872 8493 -1.48475e-07
67 13400 7.63863e-05 8.50466e-05 8493 -6.70271e-08
68 13600 7.63863e-05 3.85066e-05 8493 -3.01453e-08
69 13800 7.63863e-05 1.73711e-05 8493 -1.35076e-08
70 14000 7.63863e-05 7.80693e-06 8493 -6.02805e-09
71 14200 7.63863e-05 3.49515e-06 8493 -2.68006e-09
72 14400 7.63863e-05 1.5587e-06 8493 -1.18717e-09
73 14600 7.63863e-05 6.92366e-07 8493 -5.23764e-10
74 14800 7.63863e-05 3.06306e-07 8493 -2.29663e-10
75 15000 7.63863e-05 1.34955e-07 8493 -1.00401e-10
76 15200 7.63863e-05 5.92119e-08 8493 -4.39966e-11
77 15400 7.63863e-05 2.58692e-08 8493 -1.89567e-11
78 15600 7.63863e-05 1.12534e-08 8493 -9.43886e-12
79 15800 7.63863e-05 4.87403e-09 8493 -3.58869e-12
80 16000 7.63863e-05 2.10168e-09 8493 0
81 16200 7.63863e-05 9.02187e-10 8493 0
82 16400 7.63863e-05 3.85526e-10 8493 0
83 16600 7.63863e-05 1.63989e-10 8493 0
84 16800 7.63863e-05 6.94311e-11 8493 0
85 17000 7.63863e-05 2.92585e-11 8493 0
86 17200 7.63863e-05 1.22711e-11 8493 0
87 17400 7.63863e-05 5.12191e-12 8493 0
88 17600 7.63863e-05 2.12752e-12 8493 0
89 17800 7.63863e-05 8.79401e-13 8493 0
90 18000 7.63863e-05 3.61704e-13 8493 0
91 18200 7.63863e-05 1.48032e-13 8493 0
92 18400 7.63863e-05 6.02817e-14 8493 0
93 18600 7.63863e-05 2.44278e-14 8493 0
94 18800 7.63863e-05 9.85881e-15 8493 0
95 19000 7.63863e-05 3.98546e-15 8493 0
96 19200 7.63863e-05 1.67173e-15 8493 0
97 19400 7.63863e-05 8.71734e-16 8493 5.34671e-07
98 19600 7.63863e-05 7.76521e-13 8493 7.3282e-06
99 19800 7.63863e-05 4.79916e-13 8493 0.0262891
