NTS LL(mkm)  STRESS(GPa)   VEL(m / s)  DENS(kg/m3)  ENERGY(J) 
0 719.863 30.2243 900 10929.1 -337464
1 875.282 30.2072 899.434 10927.7 -337711
2 1030.72 30.1668 898.692 10924.2 -336958
3 1186.21 30.0865 897.557 10917.4 -335346
4 1341.8 29.9429 895.672 10905.1 -332413
5 1497.56 29.7054 892.514 10885 -327415
6 1653.61 29.3372 887.372 10854 -319586
7 1810.11 28.7963 879.356 10808.9 -308474
8 1967.26 28.0374 867.421 10746.7 -293235
9 2125.31 27.013 850.408 10664.4 -273522
10 2284.59 25.6754 827.109 10559.8 -249065
11 2445.45 23.9746 796.316 10431.3 -220183
12 2608.28 21.8623 756.813 10278.3 -187423
13 2773.54 19.2835 707.287 10100.5 -152218
14 2941.72 16.1825 646.213 9898.71 -116454
15 3113.31 12.4705 572.899 9672.74 -82653.6
16 3288.92 7.95088 489.613 9417.85 -54092
17 3469.28 8.76039 393.795 9244.08 -36014.5
18 3653.03 6.33596 334.305 9092.96 -22470
19 3839.83 3.87785 269.664 8944.54 -13176.7
20 4029.74 2.93736 203.566 8818.84 -7831.14
21 4222.35 2.30166 152.272 8726.85 -4706.67
22 4416.99 1.82355 113.51 8659.75 -2877.02
23 4613.14 1.24369 85.1772 8608.35 -1797.81
24 4810.46 2.05688 61.4281 8583.12 -1271.53
25 5008.36 1.75298 54.0823 8569.62 -922.438
26 5206.57 1.45993 46.626 8556.67 -639.063
27 5405.08 1.19103 39.2081 8544.83 -424.864
28 5603.87 0.952792 32.2721 8534.39 -271.635
29 5802.9 0.747775 26.0415 8525.43 -167.151
30 6002.14 0.575846 20.611 8517.94 -99.0622
31 6201.55 0.435363 16.0051 8511.84 -56.5835
32 6401.11 0.323251 12.1983 8506.97 -31.1717
33 6600.78 0.23578 9.12793 8503.18 -16.574
34 6800.54 0.168971 6.70878 8500.3 -8.51091
35 7000.37 0.119066 4.84454 8498.14 -4.22356
36 7200.25 0.0824555 3.43814 8496.56 -2.02687
37 7400.16 0.0562334 2.39888 8495.42 -0.941187
38 7600.11 0.0377263 1.64597 8494.62 -0.423157
39 7800.07 0.0248884 1.11089 8494.07 -0.184333
40 8000.04 0.0161455 0.737694 8493.7 -0.0778503
41 8200.03 0.0103167 0.48211 8493.44 -0.0319001
42 8400.02 0.00653577 0.31011 8493.28 -0.0126935
43 8600.01 0.00409388 0.196297 8493.17 -0.00491406
44 8800.01 0.00251846 0.122394 8493.11 -0.00185025
45 9000 0.00149442 0.0750223 8493.06 -0.00068065
46 9200 0.000943014 0.0452398 8493.04 -0.000245012
47 9400 0.000549152 0.0267117 8493.02 -8.73981e-05
48 9600 0.000312834 0.0154745 8493.01 -3.1009e-05
49 9800 0.000155296 0.00879751 8493.01 -1.07486e-05
50 10000 0.000155296 0.00467056 8493 -3.86853e-06
51 10200 7.63863e-05 0.0022356 8493 -1.65203e-06
52 10400 7.63863e-05 0.000976422 8493 -7.16013e-07
53 10600 7.63863e-05 0.000425982 8493 -3.07672e-07
54 10800 7.63863e-05 0.000183839 8493 -1.31394e-07
55 11000 7.63863e-05 7.88184e-05 8493 -5.58028e-08
56 11200 7.63863e-05 3.36087e-05 8493 -2.35674e-08
57 11400 7.63863e-05 1.42515e-05 8493 -9.89653e-09
58 11600 7.63863e-05 6.0086e-06 8493 -4.13051e-09
59 11800 7.63863e-05 2.51849e-06 8493 -1.71452e-09
60 12000 7.63863e-05 1.04938e-06 8493 -7.07323e-10
61 12200 7.63863e-05 4.3463e-07 8493 -2.89966e-10
62 12400 7.63863e-05 1.78921e-07 8493 -1.17797e-10
63 12600 7.63863e-05 7.32008e-08 8493 -4.77414e-11
64 12800 7.63863e-05 2.97606e-08 8493 -1.92688e-11
65 13000 7.63863e-05 1.20226e-08 8493 -7.80151e-12
66 13200 7.63863e-05 4.82555e-09 8493 -3.19765e-12
67 13400 7.63863e-05 1.9242e-09 8493 -7.01173e-13
68 13600 7.63863e-05 7.62211e-10 8493 0
69 13800 7.63863e-05 2.99909e-10 8493 0
70 14000 7.63863e-05 1.1721e-10 8493 0
71 14200 7.63863e-05 4.54959e-11 8493 0
72 14400 7.63863e-05 1.75382e-11 8493 0
73 14600 7.63863e-05 6.71395e-12 8493 0
74 14800 7.63863e-05 2.55228e-12 8493 0
75 15000 7.63863e-05 9.63411e-13 8493 0
76 15200 7.63863e-05 3.61084e-13 8493 0
77 15400 7.63863e-05 1.34368e-13 8493 0
78 15600 7.63863e-05 4.96433e-14 8493 0
79 15800 7.63863e-05 1.82088e-14 8493 0
80 16000 7.63863e-05 6.63045e-15 8493 0
81 16200 7.63863e-05 2.39679e-15 8493 0
82 16400 7.63863e-05 8.60072e-16 8493 0
83 16600 7.63863e-05 3.06363e-16 8493 0
84 16800 7.63863e-05 1.08331e-16 8493 0
85 17000 7.63863e-05 3.80145e-17 8493 0
86 17200 7.63863e-05 1.3249e-17 8493 0
87 17400 7.63863e-05 4.58134e-18 8493 0
88 17600 7.63863e-05 1.57241e-18 8493 0
89 17800 7.63863e-05 5.38696e-19 8493 0
90 18000 7.63863e-05 1.89271e-19 8493 0
91 18200 7.63863e-05 9.22077e-20 8493 0
92 18400 7.63863e-05 4.85296e-21 8493 0
93 18600 7.63863e-05 0 8493 0
94 18800 7.63863e-05 0 8493 0
95 19000 7.63863e-05 0 8493 0
96 19200 7.63863e-05 0 8493 0
97 19400 7.63863e-05 0 8493 5.34671e-07
98 19600 7.63863e-05 1.84255e-10 8493 7.3282e-06
99 19800 7.63863e-05 1.13876e-10 8493 0.0262888
