NTS LL(mkm)  STRESS(GPa)   VEL(m / s)  DENS(kg/m3)  ENERGY(J) 
0 994.089 30.3225 900 10937.6 -339597
1 1149.39 30.3206 899.72 10937.4 -340174
2 1304.69 30.3161 899.426 10937 -340197
3 1460 30.3073 899.099 10936.3 -340126
4 1615.32 30.291 898.702 10934.9 -339926
5 1770.66 30.2626 898.172 10932.4 -339370
6 1926.03 30.2147 897.406 10928.3 -338248
7 2081.46 30.1372 896.247 10921.7 -336624
8 2236.98 30.017 894.473 10911.4 -334022
9 2392.66 29.8372 891.776 10896.1 -330222
10 2548.55 29.5776 887.764 10874.2 -324721
11 2704.75 29.2147 881.949 10843.7 -317198
12 2861.4 28.7222 873.755 10802.8 -307028
13 3018.63 28.0713 862.527 10749.4 -293999
14 3176.65 27.2313 847.542 10681.7 -277708
15 3335.67 26.1694 828.031 10598.1 -257960
16 3495.94 24.8506 803.187 10496.9 -234741
17 3657.76 23.2358 772.166 10377 -208327
18 3821.45 21.2841 734.027 10237.5 -179076
19 3987.37 18.9435 687.722 10077.7 -147953
20 4155.92 16.1495 632.253 9896.62 -116126
21 4327.56 12.7964 567.251 9691.94 -85275.3
22 4502.81 8.73334 491.89 9460.51 -58138.1
23 4682.36 9.38761 399.241 9283.91 -40234.1
24 4865.32 7.24596 345.258 9149.11 -27052
25 5050.98 5.02737 288.602 9013.38 -16972.6
26 5239.43 3.36589 228.762 8882.58 -10394
27 5430.66 2.676 174.733 8780.66 -6449.95
28 5624.11 2.14514 133.101 8704.72 -4059.66
29 5819.24 1.73997 101.261 8648.21 -2603.58
30 6015.66 1.16553 77.9606 8602.58 -1703.25
31 6213.11 2.08299 58.2156 8584.28 -1304.66
32 6410.98 1.85521 53.6991 8574.16 -1034.04
33 6609.09 1.62303 48.2764 8563.87 -790.684
34 6807.43 1.39847 42.5327 8553.96 -586.532
35 7006.01 1.18743 36.8952 8544.68 -422.476
36 7204.8 0.993472 31.5365 8536.17 -295.523
37 7403.79 0.81925 26.5616 8528.55 -200.809
38 7602.95 0.665911 22.0463 8521.86 -132.6
39 7802.28 0.533743 18.0361 8516.11 -85.1226
40 8001.73 0.421844 14.5464 8511.25 -53.1445
41 8201.3 0.328834 11.5683 8507.22 -32.2817
42 8400.97 0.252931 9.07318 8503.93 -19.0856
43 8600.71 0.191873 7.01968 8501.29 -10.9869
44 8800.52 0.143705 5.35824 8499.2 -6.16073
45 9000.37 0.106233 4.03606 8497.58 -3.36618
46 9200.26 0.0775736 3.00056 8496.35 -1.7929
47 9400.19 0.0559184 2.20207 8495.41 -0.931191
48 9600.13 0.039774 1.59557 8494.72 -0.471799
49 9800.09 0.0279601 1.14162 8494.21 -0.233272
50 10000.1 0.0194537 0.806698 8493.84 -0.112599
51 10200 0.0133887 0.563004 8493.57 -0.0530878
52 10400 0.0090564 0.388188 8493.39 -0.0244553
53 10600 0.00606315 0.264368 8493.26 -0.0110159
54 10800 0.00401511 0.177878 8493.17 -0.0048545
55 11000 0.002676 0.118213 8493.11 -0.00209486
56 11200 0.00173074 0.0775391 8493.07 -0.000887158
57 11400 0.00110056 0.0502198 8493.05 -0.000369109
58 11600 0.000706697 0.0320452 8493.03 -0.000151403
59 11800 0.000470379 0.0201332 8493.02 -6.13606e-05
60 12000 0.000312834 0.012387 8493.01 -2.46903e-05
61 12200 0.000155296 0.00746885 8493.01 -9.8147e-06
62 12400 0.000155296 0.00423903 8493 -3.94754e-06
63 12600 7.63863e-05 0.00218694 8493 -1.77038e-06
64 12800 7.63863e-05 0.00100093 8493 -8.11893e-07
65 13000 7.63863e-05 0.000461642 8493 -3.69947e-07
66 13200 7.63863e-05 0.000211095 8493 -1.67814e-07
67 13400 7.63863e-05 9.60365e-05 8493 -7.58446e-08
68 13600 7.63863e-05 4.35308e-05 8493 -3.41518e-08
69 13800 7.63863e-05 1.96605e-05 8493 -1.53216e-08
70 14000 7.63863e-05 8.84662e-06 8493 -6.84646e-09
71 14200 7.63863e-05 3.96558e-06 8493 -3.0478e-09
72 14400 7.63863e-05 1.77075e-06 8493 -1.35169e-09
73 14600 7.63863e-05 7.87586e-07 8493 -5.97095e-10
74 14800 7.63863e-05 3.48899e-07 8493 -2.62427e-10
75 15000 7.63863e-05 1.53932e-07 8493 -1.14753e-10
76 15200 7.63863e-05 6.7633e-08 8493 -5.03168e-11
77 15400 7.63863e-05 2.95907e-08 8493 -2.17652e-11
78 15600 7.63863e-05 1.28912e-08 8493 -1.05311e-11
79 15800 7.63863e-05 5.59173e-09 8493 -4.6809e-12
80 16000 7.63863e-05 2.41484e-09 8493 0
81 16200 7.63863e-05 1.03823e-09 8493 0
82 16400 7.63863e-05 4.44364e-10 8493 0
83 16600 7.63863e-05 1.89322e-10 8493 0
84 16800 7.63863e-05 8.02888e-11 8493 0
85 17000 7.63863e-05 3.38906e-11 8493 0
86 17200 7.63863e-05 1.42381e-11 8493 0
87 17400 7.63863e-05 5.95322e-12 8493 0
88 17600 7.63863e-05 2.47718e-12 8493 0
89 17800 7.63863e-05 1.02577e-12 8493 0
90 18000 7.63863e-05 4.22674e-13 8493 0
91 18200 7.63863e-05 1.73305e-13 8493 0
92 18400 7.63863e-05 7.0706e-14 8493 0
93 18600 7.63863e-05 2.87067e-14 8493 0
94 18800 7.63863e-05 1.16084e-14 8493 0
95 19000 7.63863e-05 4.70229e-15 8493 0
96 19200 7.63863e-05 1.97686e-15 8493 0
97 19400 7.63863e-05 1.03314e-15 8493 5.34671e-07
98 19600 7.63863e-05 7.22514e-13 8493 7.3282e-06
99 19800 7.63863e-05 4.46538e-13 8493 0.0262891
