NTS LL(mkm)  STRESS(GPa)   VEL(m / s)  DENS(kg/m3)  ENERGY(J) 
0 908.978 30.2987 900 10935.5 -339081
1 1064.31 30.2954 899.666 10935.2 -339624
2 1219.64 30.287 899.303 10934.5 -339565
3 1374.98 30.2703 898.871 10933.1 -339321
4 1530.35 30.239 898.295 10930.4 -338796
5 1685.75 30.1843 897.448 10925.7 -337674
6 1841.22 30.0935 896.138 10918 -335630
7 1996.79 29.9499 894.081 10905.7 -332595
8 2152.55 29.7327 890.894 10887.3 -327949
9 2308.56 29.4167 886.082 10860.6 -321334
10 2464.96 28.9734 879.041 10823.6 -312141
11 2621.9 28.3714 869.064 10773.9 -299998
12 2779.56 27.5768 855.362 10709.4 -284313
13 2938.17 26.5538 837.083 10628.1 -265000
14 3097.99 25.2648 813.333 10528.3 -241905
15 3259.32 23.6701 783.182 10408.8 -215212
16 3422.51 21.7266 745.632 10268.7 -185431
17 3587.93 19.3824 699.638 10107.1 -153494
18 3755.99 16.5771 644.294 9923.69 -120586
19 3927.15 13.2015 579.151 9715.98 -88556.6
20 4101.98 9.13093 502.529 9482.41 -60296.5
21 4281.11 9.52016 407.678 9292.38 -41157.9
22 4463.91 7.31113 350.351 9153.16 -27402.6
23 4649.48 5.03645 291.658 9013.93 -17007.6
24 4837.92 3.35277 230.196 8880.57 -10309.6
25 5029.19 2.65234 175.008 8777.22 -6332.84
26 5222.72 2.11798 132.56 8700.88 -3949.33
27 5417.94 1.71323 99.9733 8644.52 -2515.75
28 5614.43 1.11268 76.2046 8598.67 -1643.06
29 5811.98 2.04495 58 8582.59 -1257.2
30 6009.89 1.79263 53.1461 8571.38 -965.092
31 6208.06 1.54388 46.987 8560.38 -715.195
32 6406.48 1.30882 40.7571 8550.01 -513.499
33 6605.15 1.09196 34.8026 8540.49 -357.132
34 6804.04 0.896736 29.2477 8531.94 -240.63
35 7003.13 0.724938 24.189 8524.44 -157.145
36 7202.39 0.577102 19.6916 8518 -99.5182
37 7401.8 0.452497 15.7832 8512.58 -61.1462
38 7601.34 0.349516 12.4585 8508.11 -36.468
39 7800.99 0.266069 9.6873 8504.5 -21.1219
40 8000.72 0.199585 7.42177 8501.62 -11.8856
41 8200.51 0.147641 5.60372 8499.37 -6.50096
42 8400.36 0.107729 4.17066 8497.65 -3.45774
43 8600.25 0.0774948 3.06047 8496.34 -1.78915
44 8800.18 0.0549734 2.2147 8495.37 -0.900993
45 9000.12 0.0385138 1.58072 8494.66 -0.441789
46 9200.08 0.0266211 1.113 8494.15 -0.211018
47 9400.05 0.0181934 0.773222 8493.78 -0.0982303
48 9600.04 0.0122071 0.530109 8493.53 -0.0445852
49 9800.02 0.00811117 0.358665 8493.35 -0.0197432
50 10000 0.00535422 0.239517 8493.23 -0.0085345
51 10200 0.00346371 0.157835 8493.15 -0.00360646
52 10400 0.00220337 0.102651 8493.09 -0.0014909
53 10600 0.00141565 0.0658398 8493.06 -0.000604375
54 10800 0.000864242 0.0416389 8493.04 -0.000240555
55 11000 0.000549152 0.0258715 8493.02 -9.4759e-05
56 11200 0.000391606 0.0158653 8493.01 -3.66011e-05
57 11400 0.000234061 0.00932726 8493.01 -1.45202e-05
58 11600 0.000155296 0.00536871 8493 -5.81199e-06
59 11800 7.63863e-05 0.00298146 8493 -2.33609e-06
60 12000 7.63863e-05 0.00134322 8493 -1.04944e-06
61 12200 7.63863e-05 0.000603609 8493 -4.71194e-07
62 12400 7.63863e-05 0.000271759 8493 -2.10876e-07
63 12600 7.63863e-05 0.000122037 8493 -9.39695e-08
64 12800 7.63863e-05 5.4565e-05 8493 -4.16944e-08
65 13000 7.63863e-05 2.42902e-05 8493 -1.84207e-08
66 13200 7.63863e-05 1.07669e-05 8493 -8.10236e-09
67 13400 7.63863e-05 4.75205e-06 8493 -3.5491e-09
68 13600 7.63863e-05 2.0882e-06 8493 -1.5468e-09
69 13800 7.63863e-05 9.13544e-07 8493 -6.71282e-10
70 14000 7.63863e-05 3.97856e-07 8493 -2.8981e-10
71 14200 7.63863e-05 1.72476e-07 8493 -1.25051e-10
72 14400 7.63863e-05 7.44234e-08 8493 -5.34374e-11
73 14600 7.63863e-05 3.19622e-08 8493 -2.28575e-11
74 14800 7.63863e-05 1.3661e-08 8493 -9.51591e-12
75 15000 7.63863e-05 5.81053e-09 8493 -4.05678e-12
76 15200 7.63863e-05 2.45931e-09 8493 -1.79338e-12
77 15400 7.63863e-05 1.03573e-09 8493 0
78 15600 7.63863e-05 4.34002e-10 8493 0
79 15800 7.63863e-05 1.80934e-10 8493 0
80 16000 7.63863e-05 7.50428e-11 8493 0
81 16200 7.63863e-05 3.09623e-11 8493 0
82 16400 7.63863e-05 1.27077e-11 8493 0
83 16600 7.63863e-05 5.1879e-12 8493 0
84 16800 7.63863e-05 2.10659e-12 8493 0
85 17000 7.63863e-05 8.50772e-13 8493 0
86 17200 7.63863e-05 3.41719e-13 8493 0
87 17400 7.63863e-05 1.36498e-13 8493 0
88 17600 7.63863e-05 5.42211e-14 8493 0
89 17800 7.63863e-05 2.14178e-14 8493 0
90 18000 7.63863e-05 8.41255e-15 8493 0
91 18200 7.63863e-05 3.28557e-15 8493 0
92 18400 7.63863e-05 1.2759e-15 8493 0
93 18600 7.63863e-05 4.92681e-16 8493 0
94 18800 7.63863e-05 1.89297e-16 8493 0
95 19000 7.63863e-05 7.27069e-17 8493 0
96 19200 7.63863e-05 2.88285e-17 8493 0
97 19400 7.63863e-05 1.42105e-17 8493 5.34671e-07
98 19600 7.63863e-05 4.03435e-12 8493 7.3282e-06
99 19800 7.63863e-05 2.49337e-12 8493 0.026289
