NTS LL(mkm)  STRESS(GPa)   VEL(m / s)  DENS(kg/m3)  ENERGY(J) 
0 997.147 30.3233 900 10937.6 -339614
1 1152.45 30.3214 899.721 10937.5 -340191
2 1307.75 30.317 899.429 10937.1 -340217
3 1463.05 30.3084 899.105 10936.3 -340150
4 1618.37 30.2926 898.713 10935 -339957
5 1773.71 30.2647 898.191 10932.6 -339416
6 1929.08 30.2178 897.438 10928.6 -338317
7 2084.5 30.1421 896.303 10922.1 -336730
8 2240.02 30.0245 894.564 10912.1 -334183
9 2395.69 29.8484 891.923 10897.1 -330459
10 2551.56 29.5938 887.991 10875.5 -325062
11 2707.75 29.2376 882.289 10845.6 -317673
12 2864.36 28.7536 874.248 10805.4 -307668
13 3021.56 28.1135 863.219 10752.9 -294834
14 3179.53 27.2867 848.487 10686.2 -278764
15 3338.48 26.2405 829.288 10603.6 -259253
16 3498.68 24.9404 804.819 10503.7 -236274
17 3660.39 23.3476 774.237 10385.1 -210092
18 3823.95 21.4218 736.603 10247.2 -181040
19 3989.71 19.1112 690.919 10088.9 -150047
20 4158.08 16.3499 636.287 9909.28 -118222
21 4329.49 13.0352 572.214 9706.09 -87215.9
22 4504.49 9.03576 497.14 9477.15 -59783.2
23 4683.73 9.53493 404.236 9293.32 -41264.6
24 4866.5 7.39853 349.18 9158.6 -27880.3
25 5051.97 5.18794 292.539 9023.08 -17580.8
26 5240.22 3.42292 233.026 8891.19 -10763.3
27 5431.26 2.72087 178.128 8787.14 -6676.34
28 5624.57 2.17966 135.765 8709.58 -4198.21
29 5819.59 1.7655 103.451 8651.73 -2686.04
30 6015.92 1.20614 79.6328 8605.58 -1751.17
31 6213.31 2.09849 58.8997 8584.97 -1324.23
32 6411.16 1.873 54.0346 8574.95 -1054.09
33 6609.25 1.64201 48.686 8564.71 -809.334
34 6807.58 1.41724 42.9956 8554.79 -602.386
35 7006.13 1.20528 37.3617 8545.46 -435.303
36 7204.91 1.01009 31.9864 8536.9 -305.505
37 7403.88 0.83431 26.9848 8529.21 -208.293
38 7603.03 0.679335 22.4353 8522.45 -138.013
39 7802.34 0.545448 18.3856 8516.62 -88.9047
40 8001.78 0.431826 14.854 8511.68 -55.7002
41 8201.34 0.337249 11.8335 8507.58 -33.9538
42 8401 0.259854 9.29755 8504.23 -20.1459
43 8600.74 0.197539 7.20612 8501.53 -11.6391
44 8800.54 0.148192 5.51042 8499.4 -6.55016
45 9000.39 0.109776 4.15827 8497.74 -3.59203
46 9200.27 0.0802508 3.09704 8496.46 -1.92025
47 9400.19 0.0579659 2.2771 8495.5 -1.00103
48 9600.13 0.0413491 1.65298 8494.78 -0.509082
49 9800.09 0.0291415 1.18495 8494.25 -0.252646
50 10000.1 0.0202413 0.838854 8493.87 -0.122418
51 10200 0.01394 0.586594 8493.6 -0.0579365
52 10400 0.00945025 0.405224 8493.41 -0.0267921
53 10600 0.00637823 0.276574 8493.27 -0.0121102
54 10800 0.00425143 0.186415 8493.18 -0.00535698
55 11000 0.00275477 0.124131 8493.12 -0.00232074
56 11200 0.00180951 0.0816126 8493.08 -0.000986231
57 11400 0.00117933 0.0529789 8493.05 -0.0004116
58 11600 0.000785469 0.0339085 8493.03 -0.000169052
59 11800 0.000470379 0.0213232 8493.02 -6.88282e-05
60 12000 0.000312834 0.0131693 8493.01 -2.78299e-05
61 12200 0.000155296 0.00804383 8493.01 -1.08755e-05
62 12400 0.000155296 0.00445902 8493 -4.57295e-06
63 12600 7.63863e-05 0.00246676 8493 -1.9651e-06
64 12800 7.63863e-05 0.00111292 8493 -8.98968e-07
65 13000 7.63863e-05 0.000510486 8493 -4.10179e-07
66 13200 7.63863e-05 0.000233801 8493 -1.86312e-07
67 13400 7.63863e-05 0.000106533 8493 -8.42943e-08
68 13600 7.63863e-05 4.83414e-05 8493 -3.79955e-08
69 13800 7.63863e-05 2.18551e-05 8493 -1.70638e-08
70 14000 7.63863e-05 9.84423e-06 8493 -7.6332e-09
71 14200 7.63863e-05 4.41746e-06 8493 -3.40182e-09
72 14400 7.63863e-05 1.97467e-06 8493 -1.51045e-09
73 14600 7.63863e-05 8.7926e-07 8493 -6.67772e-10
74 14800 7.63863e-05 3.89953e-07 8493 -2.93787e-10
75 15000 7.63863e-05 1.72246e-07 8493 -1.28796e-10
76 15200 7.63863e-05 7.57696e-08 8493 -5.64791e-11
77 15400 7.63863e-05 3.31911e-08 8493 -2.44948e-11
78 15600 7.63863e-05 1.44777e-08 8493 -1.17003e-11
79 15800 7.63863e-05 6.2879e-09 8493 -5.61709e-12
80 16000 7.63863e-05 2.71901e-09 8493 0
81 16200 7.63863e-05 1.17055e-09 8493 0
82 16400 7.63863e-05 5.01673e-10 8493 0
83 16600 7.63863e-05 2.14032e-10 8493 0
84 16800 7.63863e-05 9.0895e-11 8493 0
85 17000 7.63863e-05 3.84222e-11 8493 0
86 17200 7.63863e-05 1.61653e-11 8493 0
87 17400 7.63863e-05 6.76899e-12 8493 0
88 17600 7.63863e-05 2.82085e-12 8493 0
89 17800 7.63863e-05 1.16986e-12 8493 0
90 18000 7.63863e-05 4.82794e-13 8493 0
91 18200 7.63863e-05 1.98267e-13 8493 0
92 18400 7.63863e-05 8.10193e-14 8493 0
93 18600 7.63863e-05 3.29474e-14 8493 0
94 18800 7.63863e-05 1.33454e-14 8493 0
95 19000 7.63863e-05 5.41528e-15 8493 0
96 19200 7.63863e-05 2.28096e-15 8493 0
97 19400 7.63863e-05 1.19435e-15 8493 5.34671e-07
98 19600 7.63863e-05 6.79222e-13 8493 7.3282e-06
99 19800 7.63863e-05 4.19782e-13 8493 0.0262891
