NTS LL(mkm)  STRESS(GPa)   VEL(m / s)  DENS(kg/m3)  ENERGY(J) 
0 906.429 30.298 900 10935.5 -339064
1 1061.76 30.2945 899.664 10935.2 -339606
2 1217.09 30.2861 899.299 10934.4 -339543
3 1372.44 30.2689 898.862 10933 -339292
4 1527.8 30.237 898.278 10930.2 -338753
5 1683.21 30.1812 897.419 10925.4 -337607
6 1838.68 30.0887 896.086 10917.5 -335526
7 1994.26 29.9424 893.992 10905.1 -332435
8 2150.02 29.7213 890.748 10886.3 -327709
9 2306.06 29.4001 885.852 10859.2 -320986
10 2462.48 28.9498 878.692 10821.6 -311656
11 2619.44 28.3387 868.555 10771.2 -299346
12 2777.14 27.533 854.644 10705.9 -283467
13 2935.8 26.4965 836.102 10623.6 -263943
14 3095.69 25.1913 812.032 10522.7 -240630
15 3257.11 23.5774 781.502 10402 -213725
16 3420.4 21.6114 743.511 10260.5 -183760
17 3585.95 19.2413 696.972 10097.6 -151702
18 3754.17 16.4078 640.907 9912.94 -118786
19 3925.52 12.9986 574.989 9703.92 -86882.7
20 4100.56 8.87365 498.107 9468.22 -58877.2
21 4279.96 9.39164 403.356 9284.2 -40262.3
22 4462.92 7.17922 346.917 9144.97 -26695.1
23 4648.66 4.89863 288.254 9005.6 -16499
24 4837.28 3.30469 226.556 8873.37 -10006
25 5028.7 2.61489 172.152 8771.81 -6148.19
26 5222.35 2.0889 130.38 8696.79 -3835.85
27 5417.66 1.69168 98.1551 8641.56 -2448.35
28 5614.22 1.08385 74.3058 8596.53 -1611.4
29 5811.81 2.03139 57.9311 8581.99 -1240.5
30 6009.74 1.77538 52.8995 8570.62 -946.541
31 6207.93 1.52669 46.5695 8559.61 -699.248
32 6406.37 1.29239 40.3266 8549.29 -500.622
33 6605.05 1.07661 34.3879 8539.81 -347.127
34 6803.96 0.8827 28.8564 8531.33 -233.162
35 7003.06 0.712459 23.8284 8523.89 -151.788
36 7202.33 0.566263 19.3675 8517.53 -95.8196
37 7401.76 0.443302 15.4988 8512.18 -58.6841
38 7601.31 0.341888 12.2142 8507.78 -34.8859
39 7800.96 0.259776 9.482 8504.22 -20.1391
40 8000.7 0.194627 7.25256 8501.4 -11.2951
41 8200.5 0.143705 5.46684 8499.2 -6.15731
42 8400.35 0.104659 4.06198 8497.51 -3.26394
43 8600.25 0.0751326 2.9757 8496.24 -1.68314
44 8800.17 0.0532409 2.14968 8495.3 -0.84471
45 9000.12 0.0372537 1.53169 8494.6 -0.41276
46 9200.08 0.025676 1.07659 8494.11 -0.196473
47 9400.05 0.0174845 0.746633 8493.75 -0.0911397
48 9600.03 0.0117345 0.510955 8493.51 -0.0412244
49 9800.02 0.00779609 0.345111 8493.34 -0.0181899
50 10000 0.00511791 0.230001 8493.22 -0.00783789
51 10200 0.00330617 0.151311 8493.14 -0.00330093
52 10400 0.0021246 0.0982131 8493.09 -0.00136031
53 10600 0.00133688 0.0628779 8493.06 -0.000549621
54 10800 0.000864242 0.0396593 8493.04 -0.000218371
55 11000 0.000549152 0.0245987 8493.02 -8.5792e-05
56 11200 0.000312834 0.0150081 8493.01 -3.32948e-05
57 11400 0.000234061 0.00887235 8493.01 -1.29991e-05
58 11600 0.000155296 0.00502746 8493 -5.20809e-06
59 11800 7.63863e-05 0.00274897 8493 -2.13478e-06
60 12000 7.63863e-05 0.0012267 8493 -9.59403e-07
61 12200 7.63863e-05 0.000551814 8493 -4.30791e-07
62 12400 7.63863e-05 0.000248636 8493 -1.92629e-07
63 12600 7.63863e-05 0.00011157 8493 -8.57482e-08
64 12800 7.63863e-05 4.98306e-05 8493 -3.80073e-08
65 13000 7.63863e-05 2.21597e-05 8493 -1.67747e-08
66 13200 7.63863e-05 9.81256e-06 8493 -7.37054e-09
67 13400 7.63863e-05 4.32638e-06 8493 -3.2252e-09
68 13600 7.63863e-05 1.89914e-06 8493 -1.40404e-09
69 13800 7.63863e-05 8.29938e-07 8493 -6.08641e-10
70 14000 7.63863e-05 3.61046e-07 8493 -2.62583e-10
71 14200 7.63863e-05 1.56342e-07 8493 -1.13037e-10
72 14400 7.63863e-05 6.73837e-08 8493 -4.82884e-11
73 14600 7.63863e-05 2.89048e-08 8493 -2.0517e-11
74 14800 7.63863e-05 1.23393e-08 8493 -8.73576e-12
75 15000 7.63863e-05 5.24196e-09 8493 -3.66575e-12
76 15200 7.63863e-05 2.21588e-09 8493 -1.40427e-12
77 15400 7.63863e-05 9.32023e-10 8493 0
78 15600 7.63863e-05 3.90037e-10 8493 0
79 15800 7.63863e-05 1.6239e-10 8493 0
80 16000 7.63863e-05 6.72606e-11 8493 0
81 16200 7.63863e-05 2.77133e-11 8493 0
82 16400 7.63863e-05 1.13583e-11 8493 0
83 16600 7.63863e-05 4.63042e-12 8493 0
84 16800 7.63863e-05 1.8775e-12 8493 0
85 17000 7.63863e-05 7.57135e-13 8493 0
86 17200 7.63863e-05 3.03654e-13 8493 0
87 17400 7.63863e-05 1.21109e-13 8493 0
88 17600 7.63863e-05 4.80338e-14 8493 0
89 17800 7.63863e-05 1.8944e-14 8493 0
90 18000 7.63863e-05 7.42907e-15 8493 0
91 18200 7.63863e-05 2.8968e-15 8493 0
92 18400 7.63863e-05 1.12309e-15 8493 0
93 18600 7.63863e-05 4.32949e-16 8493 0
94 18800 7.63863e-05 1.66063e-16 8493 0
95 19000 7.63863e-05 6.36733e-17 8493 0
96 19200 7.63863e-05 2.52093e-17 8493 0
97 19400 7.63863e-05 1.23912e-17 8493 5.34671e-07
98 19600 7.63863e-05 4.24755e-12 8493 7.3282e-06
99 19800 7.63863e-05 2.62513e-12 8493 0.026289
