NTS LL(mkm)  STRESS(GPa)   VEL(m / s)  DENS(kg/m3)  ENERGY(J) 
0 907.449 30.2983 900 10935.5 -339071
1 1062.78 30.2948 899.664 10935.2 -339613
2 1218.11 30.2864 899.3 10934.5 -339552
3 1373.46 30.2694 898.866 10933 -339304
4 1528.82 30.2378 898.285 10930.3 -338770
5 1684.22 30.1825 897.431 10925.6 -337634
6 1839.69 30.0906 896.107 10917.7 -335568
7 1995.28 29.9454 894.028 10905.3 -332499
8 2151.03 29.7259 890.807 10886.7 -327806
9 2307.06 29.4068 885.945 10859.8 -321126
10 2463.47 28.9593 878.833 10822.4 -311851
11 2620.42 28.3519 868.76 10772.3 -299608
12 2778.1 27.5507 854.932 10707.3 -283807
13 2936.74 26.5195 836.496 10625.4 -264367
14 3096.61 25.2208 812.555 10525 -241142
15 3257.99 23.6146 782.177 10404.7 -214321
16 3421.25 21.6577 744.362 10263.8 -184430
17 3586.74 19.298 698.041 10101.4 -152420
18 3754.89 16.4758 642.266 9917.25 -119506
19 3926.17 13.0799 576.669 9708.75 -87549.8
20 4101.13 8.97658 499.893 9473.89 -59439.8
21 4280.42 9.44286 405.071 9287.46 -40617.4
22 4463.31 7.23186 348.278 9148.24 -26976.5
23 4648.99 4.95401 289.613 9008.94 -16701
24 4837.53 3.32356 228.01 8876.24 -10126.4
25 5028.9 2.63002 173.291 8773.96 -6221.38
26 5222.49 2.1004 131.245 8698.42 -3880.9
27 5417.77 1.70032 98.8731 8642.75 -2475.24
28 5614.3 1.09499 75.0994 8597.36 -1623.56
29 5811.88 2.03692 57.9215 8582.23 -1247.24
30 6009.8 1.78233 52.9996 8570.92 -954.001
31 6207.98 1.53357 46.7391 8559.92 -705.609
32 6406.42 1.29896 40.4991 8549.58 -505.749
33 6605.09 1.0828 34.5537 8540.08 -351.107
34 6803.99 0.888267 29.0127 8531.57 -236.13
35 7003.09 0.717404 23.9724 8524.11 -153.915
36 7202.36 0.570583 19.4969 8517.71 -97.2861
37 7401.78 0.446917 15.6122 8512.34 -59.6593
38 7601.32 0.344876 12.3116 8507.91 -35.5119
39 7800.97 0.262293 9.56382 8504.33 -20.5275
40 8000.7 0.196595 7.31994 8501.49 -11.5282
41 8200.5 0.14528 5.5213 8499.27 -6.29284
42 8400.36 0.10584 4.10521 8497.57 -3.34028
43 8600.25 0.0760775 3.0094 8496.28 -1.72485
44 8800.17 0.0539497 2.17551 8495.33 -0.866827
45 9000.12 0.0377263 1.55114 8494.63 -0.424163
46 9200.08 0.0260698 1.09106 8494.12 -0.202173
47 9400.05 0.0177996 0.757166 8493.76 -0.093917
48 9600.03 0.0119708 0.518545 8493.51 -0.0425395
49 9800.02 0.00795363 0.350494 8493.34 -0.0187955
50 10000 0.00519668 0.233747 8493.22 -0.0081105
51 10200 0.00338494 0.153896 8493.14 -0.00342031
52 10400 0.00220337 0.0999838 8493.09 -0.00141077
53 10600 0.00141565 0.0640551 8493.06 -0.000570507
54 10800 0.000864242 0.0404145 8493.04 -0.000227122
55 11000 0.000549152 0.0251035 8493.02 -8.93334e-05
56 11200 0.000312834 0.0153509 8493.01 -3.45921e-05
57 11400 0.000234061 0.00904951 8493.01 -1.36023e-05
58 11600 0.000155296 0.00516396 8493 -5.44628e-06
59 11800 7.63863e-05 0.0028421 8493 -2.21353e-06
60 12000 7.63863e-05 0.00127246 8493 -9.94428e-07
61 12200 7.63863e-05 0.000571951 8493 -4.46515e-07
62 12400 7.63863e-05 0.000257631 8493 -1.99735e-07
63 12600 7.63863e-05 0.000115647 8493 -8.89494e-08
64 12800 7.63863e-05 5.16746e-05 8493 -3.94425e-08
65 13000 7.63863e-05 2.29892e-05 8493 -1.74152e-08
66 13200 7.63863e-05 1.0184e-05 8493 -7.65512e-09
67 13400 7.63863e-05 4.492e-06 8493 -3.35119e-09
68 13600 7.63863e-05 1.97267e-06 8493 -1.4595e-09
69 13800 7.63863e-05 8.62448e-07 8493 -6.33057e-10
70 14000 7.63863e-05 3.75355e-07 8493 -2.73114e-10
71 14200 7.63863e-05 1.62612e-07 8493 -1.17718e-10
72 14400 7.63863e-05 7.01183e-08 8493 -5.02379e-11
73 14600 7.63863e-05 3.0092e-08 8493 -2.14532e-11
74 14800 7.63863e-05 1.28524e-08 8493 -9.04782e-12
75 15000 7.63863e-05 5.46259e-09 8493 -3.82178e-12
76 15200 7.63863e-05 2.31031e-09 8493 -1.5603e-12
77 15400 7.63863e-05 9.72236e-10 8493 0
78 15600 7.63863e-05 4.07078e-10 8493 0
79 15800 7.63863e-05 1.69575e-10 8493 0
80 16000 7.63863e-05 7.02746e-11 8493 0
81 16200 7.63863e-05 2.89711e-11 8493 0
82 16400 7.63863e-05 1.18805e-11 8493 0
83 16600 7.63863e-05 4.84606e-12 8493 0
84 16800 7.63863e-05 1.96608e-12 8493 0
85 17000 7.63863e-05 7.93323e-13 8493 0
86 17200 7.63863e-05 3.18358e-13 8493 0
87 17400 7.63863e-05 1.27051e-13 8493 0
88 17600 7.63863e-05 5.04218e-14 8493 0
89 17800 7.63863e-05 1.98983e-14 8493 0
90 18000 7.63863e-05 7.80827e-15 8493 0
91 18200 7.63863e-05 3.04663e-15 8493 0
92 18400 7.63863e-05 1.18195e-15 8493 0
93 18600 7.63863e-05 4.55945e-16 8493 0
94 18800 7.63863e-05 1.75004e-16 8493 0
95 19000 7.63863e-05 6.7147e-17 8493 0
96 19200 7.63863e-05 2.66017e-17 8493 0
97 19400 7.63863e-05 1.30898e-17 8493 5.34671e-07
98 19600 7.63863e-05 4.16095e-12 8493 7.3282e-06
99 19800 7.63863e-05 2.57161e-12 8493 0.026289
