NTS LL(mkm)  STRESS(GPa)   VEL(m / s)  DENS(kg/m3)  ENERGY(J) 
0 908.468 30.2986 900 10935.5 -339077
1 1063.8 30.2952 899.665 10935.2 -339621
2 1219.13 30.2868 899.302 10934.5 -339561
3 1374.47 30.27 898.869 10933.1 -339315
4 1529.84 30.2386 898.291 10930.4 -338787
5 1685.24 30.1837 897.442 10925.7 -337661
6 1840.71 30.0926 896.127 10917.9 -335609
7 1996.29 29.9485 894.063 10905.6 -332563
8 2152.04 29.7304 890.865 10887.1 -327902
9 2308.06 29.4134 886.037 10860.4 -321265
10 2464.47 28.9687 878.972 10823.2 -312045
11 2621.41 28.3649 868.963 10773.4 -299869
12 2779.07 27.5681 855.219 10708.7 -284145
13 2937.69 26.5424 836.888 10627.2 -264789
14 3097.53 25.2502 813.075 10527.2 -241651
15 3258.88 23.6516 782.848 10407.5 -214916
16 3422.09 21.7037 745.21 10267 -185097
17 3587.53 19.3544 699.106 10105.2 -153136
18 3755.62 16.5434 643.619 9921.55 -120226
19 3926.83 13.161 578.329 9713.57 -88220.2
20 4101.69 9.07952 501.656 9479.57 -60009.3
21 4280.88 9.49395 406.805 9290.73 -40976.7
22 4463.71 7.28484 349.656 9151.52 -27260
23 4649.32 5.00926 290.975 9012.27 -16904.9
24 4837.79 3.34289 229.467 8879.12 -10248.2
25 5029.09 2.64494 174.434 8776.13 -6295.46
26 5222.64 2.11207 132.119 8700.05 -3926.41
27 5417.88 1.70891 99.604 8643.93 -2502.21
28 5614.39 1.10671 75.8462 8598.23 -1636.4
29 5811.94 2.0423 57.9627 8582.47 -1253.89
30 6009.86 1.7892 53.0973 8571.23 -961.408
31 6208.03 1.54044 46.9052 8560.22 -711.994
32 6406.46 1.30554 40.6712 8549.87 -510.908
33 6605.13 1.08891 34.7196 8540.35 -355.116
34 6804.02 0.893913 29.1693 8531.81 -239.123
35 7003.11 0.722427 24.1167 8524.33 -156.063
36 7202.38 0.574903 19.6266 8517.9 -98.7698
37 7401.79 0.450611 15.7261 8512.5 -60.6474
38 7601.33 0.347943 12.4094 8508.05 -36.147
39 7800.98 0.26481 9.64604 8504.44 -20.9222
40 8000.71 0.198641 7.38773 8501.58 -11.7655
41 8200.51 0.146854 5.57614 8499.34 -6.43094
42 8400.36 0.107099 4.14877 8497.62 -3.41818
43 8600.25 0.0770224 3.04338 8496.32 -1.76749
44 8800.17 0.0546584 2.20158 8495.36 -0.889469
45 9000.12 0.0382776 1.57081 8494.65 -0.435837
46 9200.08 0.0264636 1.10565 8494.14 -0.208029
47 9400.05 0.0180359 0.767831 8493.78 -0.096773
48 9600.03 0.0121284 0.526227 8493.52 -0.0438943
49 9800.02 0.00811117 0.355933 8493.35 -0.019422
50 10000 0.00527545 0.23757 8493.23 -0.0083914
51 10200 0.00346371 0.156527 8493.15 -0.00354296
52 10400 0.00220337 0.10174 8493.09 -0.00146398
53 10600 0.00141565 0.0652422 8493.06 -0.000592997
54 10800 0.000864242 0.0412299 8493.04 -0.000236034
55 11000 0.000549152 0.0256137 8493.02 -9.29349e-05
56 11200 0.000312834 0.0156937 8493.01 -3.59232e-05
57 11400 0.000234061 0.00923319 8493.01 -1.42123e-05
58 11600 0.000155296 0.0053004 8493 -5.68896e-06
59 11800 7.63863e-05 0.00293504 8493 -2.29465e-06
60 12000 7.63863e-05 0.00131936 8493 -1.03077e-06
61 12200 7.63863e-05 0.000592863 8493 -4.62819e-07
62 12400 7.63863e-05 0.000266962 8493 -2.07096e-07
63 12600 7.63863e-05 0.00011987 8493 -9.22663e-08
64 12800 7.63863e-05 5.35845e-05 8493 -4.09302e-08
65 13000 7.63863e-05 2.38488e-05 8493 -1.80794e-08
66 13200 7.63863e-05 1.05691e-05 8493 -7.95055e-09
67 13400 7.63863e-05 4.66378e-06 8493 -3.48186e-09
68 13600 7.63863e-05 2.04898e-06 8493 -1.51715e-09
69 13800 7.63863e-05 8.96194e-07 8493 -6.58334e-10
70 14000 7.63863e-05 3.90214e-07 8493 -2.84115e-10
71 14200 7.63863e-05 1.69125e-07 8493 -1.22555e-10
72 14400 7.63863e-05 7.29606e-08 8493 -5.23452e-11
73 14600 7.63863e-05 3.13266e-08 8493 -2.23894e-11
74 14800 7.63863e-05 1.33861e-08 8493 -9.35988e-12
75 15000 7.63863e-05 5.69223e-09 8493 -3.97781e-12
76 15200 7.63863e-05 2.40864e-09 8493 -1.71633e-12
77 15400 7.63863e-05 1.01413e-09 8493 0
78 15600 7.63863e-05 4.24841e-10 8493 0
79 15800 7.63863e-05 1.77068e-10 8493 0
80 16000 7.63863e-05 7.34196e-11 8493 0
81 16200 7.63863e-05 3.02842e-11 8493 0
82 16400 7.63863e-05 1.2426e-11 8493 0
83 16600 7.63863e-05 5.07143e-12 8493 0
84 16800 7.63863e-05 2.0587e-12 8493 0
85 17000 7.63863e-05 8.31188e-13 8493 0
86 17200 7.63863e-05 3.33753e-13 8493 0
87 17400 7.63863e-05 1.33276e-13 8493 0
88 17600 7.63863e-05 5.29248e-14 8493 0
89 17800 7.63863e-05 2.08992e-14 8493 0
90 18000 7.63863e-05 8.20625e-15 8493 0
91 18200 7.63863e-05 3.20397e-15 8493 0
92 18400 7.63863e-05 1.24381e-15 8493 0
93 18600 7.63863e-05 4.80125e-16 8493 0
94 18800 7.63863e-05 1.84412e-16 8493 0
95 19000 7.63863e-05 7.08051e-17 8493 0
96 19200 7.63863e-05 2.80668e-17 8493 0
97 19400 7.63863e-05 1.38272e-17 8493 5.34671e-07
98 19600 7.63863e-05 4.07612e-12 8493 7.3282e-06
99 19800 7.63863e-05 2.51918e-12 8493 0.026289
