NTS LL(mkm)  STRESS(GPa)   VEL(m / s)  DENS(kg/m3)  ENERGY(J) 
0 720.373 30.2245 900 10929.2 -337470
1 875.792 30.2075 899.435 10927.7 -337719
2 1031.23 30.1673 898.695 10924.3 -336970
3 1186.72 30.0874 897.564 10917.4 -335365
4 1342.31 29.9443 895.686 10905.2 -332444
5 1498.07 29.7078 892.54 10885.2 -327466
6 1654.11 29.341 887.417 10854.3 -319664
7 1810.61 28.802 879.431 10809.4 -308589
8 1967.75 28.0454 867.537 10747.3 -293394
9 2125.8 27.0242 850.581 10665.3 -273731
10 2285.06 25.6903 827.354 10560.9 -249329
11 2445.9 23.9939 796.649 10432.7 -220499
12 2608.71 21.8869 757.248 10280 -187784
13 2773.95 19.3144 707.838 10102.5 -152611
14 2942.08 16.2205 646.919 9901.1 -116849
15 3113.64 12.5147 573.87 9675.34 -82999.7
16 3289.2 8.00334 490.784 9420.7 -54346.8
17 3469.5 8.78736 394.5 9245.77 -36188.4
18 3653.22 6.36494 334.975 9094.74 -22606.5
19 3839.99 3.90753 270.445 8946.31 -13262.2
20 4029.85 2.94663 204.277 8820.17 -7881.47
21 4222.43 2.30859 152.82 8727.84 -4736.46
22 4417.05 1.82863 113.95 8660.46 -2894.29
23 4613.19 1.25168 85.4936 8608.94 -1807.69
24 4810.49 2.06093 61.5971 8583.3 -1276.59
25 5008.39 1.75711 54.1807 8569.81 -926.797
26 5206.6 1.464 46.7248 8556.85 -642.674
27 5405.1 1.19486 39.3107 8545 -427.62
28 5603.89 0.956241 32.3705 8534.54 -273.616
29 5802.91 0.750757 26.1314 8525.56 -168.507
30 6002.15 0.578437 20.6905 8518.05 -99.9478
31 6201.56 0.437485 16.0734 8511.93 -57.137
32 6401.12 0.324981 12.2555 8507.05 -31.5033
33 6600.79 0.237118 9.17457 8503.24 -16.7646
34 6800.54 0.169994 6.74595 8500.34 -8.61619
35 7000.37 0.119853 4.87346 8498.17 -4.27954
36 7200.25 0.0830854 3.4602 8496.58 -2.05552
37 7400.17 0.0566272 2.41531 8495.44 -0.955348
38 7600.11 0.0380413 1.65798 8494.64 -0.42991
39 7800.07 0.0251246 1.11952 8494.08 -0.187441
40 8000.04 0.016303 0.743766 8493.7 -0.0792316
41 8200.03 0.0104742 0.486297 8493.45 -0.0324943
42 8400.02 0.00661454 0.312933 8493.28 -0.0129426
43 8600.01 0.00409388 0.198182 8493.18 -0.0050154
44 8800.01 0.00251846 0.123632 8493.11 -0.00189021
45 9000 0.00149442 0.0758358 8493.06 -0.000695574
46 9200 0.000943014 0.0457257 8493.04 -0.000250864
47 9400 0.000549152 0.0270387 8493.02 -8.94676e-05
48 9600 0.000312834 0.0156756 8493.01 -3.17098e-05
49 9800 0.000234061 0.00891847 8493.01 -1.09643e-05
50 10000 0.000155296 0.00471596 8493 -3.99432e-06
51 10200 7.63863e-05 0.00229346 8493 -1.6846e-06
52 10400 7.63863e-05 0.00099544 8493 -7.30172e-07
53 10600 7.63863e-05 0.000434255 8493 -3.13899e-07
54 10800 7.63863e-05 0.000187518 8493 -1.34096e-07
55 11000 7.63863e-05 8.04233e-05 8493 -5.69661e-08
56 11200 7.63863e-05 3.43024e-05 8493 -2.40655e-08
57 11400 7.63863e-05 1.45498e-05 8493 -1.01087e-08
58 11600 7.63863e-05 6.13613e-06 8493 -4.22038e-09
59 11800 7.63863e-05 2.57272e-06 8493 -1.75236e-09
60 12000 7.63863e-05 1.07231e-06 8493 -7.23082e-10
61 12200 7.63863e-05 4.44264e-07 8493 -2.96596e-10
62 12400 7.63863e-05 1.82945e-07 8493 -1.20527e-10
63 12600 7.63863e-05 7.4872e-08 8493 -4.88336e-11
64 12800 7.63863e-05 3.04503e-08 8493 -1.97369e-11
65 13000 7.63863e-05 1.23055e-08 8493 -7.95754e-12
66 13200 7.63863e-05 4.94082e-09 8493 -3.27663e-12
67 13400 7.63863e-05 1.97087e-09 8493 -7.80151e-13
68 13600 7.63863e-05 7.80986e-10 8493 0
69 13800 7.63863e-05 3.07412e-10 8493 0
70 14000 7.63863e-05 1.20188e-10 8493 0
71 14200 7.63863e-05 4.667e-11 8493 0
72 14400 7.63863e-05 1.79979e-11 8493 0
73 14600 7.63863e-05 6.89273e-12 8493 0
74 14800 7.63863e-05 2.62131e-12 8493 0
75 15000 7.63863e-05 9.89883e-13 8493 0
76 15200 7.63863e-05 3.71163e-13 8493 0
77 15400 7.63863e-05 1.38178e-13 8493 0
78 15600 7.63863e-05 5.10732e-14 8493 0
79 15800 7.63863e-05 1.87416e-14 8493 0
80 16000 7.63863e-05 6.82753e-15 8493 0
81 16200 7.63863e-05 2.46916e-15 8493 0
82 16400 7.63863e-05 8.86448e-16 8493 0
83 16600 7.63863e-05 3.15909e-16 8493 0
84 16800 7.63863e-05 1.11758e-16 8493 0
85 17000 7.63863e-05 3.92375e-17 8493 0
86 17200 7.63863e-05 1.36809e-17 8493 0
87 17400 7.63863e-05 4.73179e-18 8493 0
88 17600 7.63863e-05 1.62579e-18 8493 0
89 17800 7.63863e-05 5.58108e-19 8493 0
90 18000 7.63863e-05 1.94124e-19 8493 0
91 18200 7.63863e-05 9.70606e-20 8493 0
92 18400 7.63863e-05 4.85296e-21 8493 0
93 18600 7.63863e-05 0 8493 0
94 18800 7.63863e-05 0 8493 0
95 19000 7.63863e-05 0 8493 0
96 19200 7.63863e-05 0 8493 0
97 19400 7.63863e-05 0 8493 5.34671e-07
98 19600 7.63863e-05 1.82367e-10 8493 7.3282e-06
99 19800 7.63863e-05 1.12709e-10 8493 0.0262888
