NTS LL(mkm)  STRESS(GPa)   VEL(m / s)  DENS(kg/m3)  ENERGY(J) 
0 902.862 30.2969 900 10935.4 -339040
1 1058.19 30.2933 899.661 10935.1 -339580
2 1213.53 30.2846 899.292 10934.3 -339512
3 1368.87 30.267 898.85 10932.8 -339250
4 1524.24 30.2342 898.255 10930 -338691
5 1679.65 30.1768 897.377 10925.1 -337512
6 1835.13 30.0818 896.012 10916.9 -335377
7 1990.72 29.9317 893.865 10904.2 -332205
8 2146.49 29.7051 890.539 10884.9 -327365
9 2302.54 29.3763 885.523 10857.2 -320489
10 2458.99 28.9161 878.194 10818.8 -310964
11 2616 28.2923 867.829 10767.4 -298417
12 2773.75 27.4707 853.62 10700.9 -282265
13 2932.48 26.4149 834.704 10617.2 -262443
14 3092.47 25.0868 810.177 10514.8 -238823
15 3254.01 23.4458 779.109 10392.3 -211624
16 3417.46 21.4476 740.499 10249 -181404
17 3583.19 19.0404 693.211 10084.2 -149176
18 3751.64 16.1668 636.111 9897.71 -116259
19 3923.25 12.7129 568.945 9687.01 -84573
20 4098.6 8.51403 491.632 9448.5 -56965.4
21 4278.37 9.21589 397.547 9272.98 -39051.4
22 4461.55 6.99453 342.299 9133.53 -25725.8
23 4647.53 4.70398 283.515 8993.91 -15807.7
24 4836.39 3.23856 221.48 8863.49 -9595.42
25 5028.03 2.5636 168.206 8764.4 -5899.04
26 5221.83 2.04885 127.419 8691.15 -3681.81
27 5417.27 1.63719 95.7778 8637.35 -2354.49
28 5613.93 1.04982 71.045 8594.02 -1575.11
29 5811.58 2.01042 58.5056 8581.05 -1214.87
30 6009.53 1.75048 52.4731 8569.51 -920.079
31 6207.74 1.50246 45.9495 8558.55 -677.223
32 6406.21 1.26938 39.7228 8548.28 -482.929
33 6604.92 1.05522 33.8092 8538.88 -333.427
34 6803.84 0.863251 28.3107 8530.47 -222.979
35 7002.96 0.695192 23.3267 8523.14 -144.516
36 7202.26 0.551339 18.9177 8516.87 -90.8202
37 7401.7 0.430569 15.1049 8511.63 -55.3706
38 7601.26 0.331351 11.877 8507.32 -32.7657
39 7800.92 0.251201 9.1991 8503.85 -18.8279
40 8000.67 0.187702 7.01991 8501.11 -10.5105
41 8200.48 0.138274 5.27914 8498.97 -5.70274
42 8400.34 0.100486 3.91331 8497.33 -3.00866
43 8600.23 0.0719828 2.86 8496.1 -1.54409
44 8800.16 0.0508784 2.06112 8495.19 -0.771207
45 9000.11 0.035521 1.46508 8494.53 -0.375009
46 9200.07 0.0244158 1.0272 8494.05 -0.177644
47 9400.05 0.0166181 0.710657 8493.71 -0.0820021
48 9600.03 0.0111044 0.485125 8493.48 -0.036909
49 9800.02 0.00740224 0.326814 8493.32 -0.0162081
50 10000 0.00480282 0.217273 8493.21 -0.00694961
51 10200 0.00314863 0.142555 8493.13 -0.00291296
52 10400 0.00196705 0.0922639 8493.08 -0.0011954
53 10600 0.0012581 0.0589091 8493.05 -0.000481076
54 10800 0.000785469 0.0370449 8493.03 -0.000190452
55 11000 0.000470379 0.0229368 8493.02 -7.4298e-05
56 11200 0.000312834 0.013847 8493.01 -2.90415e-05
57 11400 0.000234061 0.00831502 8493.01 -1.0924e-05
58 11600 0.000155296 0.00454254 8493 -4.41028e-06
59 11800 7.63863e-05 0.00242056 8493 -1.87903e-06
60 12000 7.63863e-05 0.00107717 8493 -8.46805e-07
61 12200 7.63863e-05 0.0004874 8493 -3.7998e-07
62 12400 7.63863e-05 0.000219597 8493 -1.69635e-07
63 12600 7.63863e-05 9.8366e-05 8493 -7.53999e-08
64 12800 7.63863e-05 4.38645e-05 8493 -3.3373e-08
65 13000 7.63863e-05 1.94791e-05 8493 -1.47083e-08
66 13200 7.63863e-05 8.61338e-06 8493 -6.45305e-09
67 13400 7.63863e-05 3.79214e-06 8493 -2.81946e-09
68 13600 7.63863e-05 1.66214e-06 8493 -1.22539e-09
69 13800 7.63863e-05 7.25264e-07 8493 -5.30474e-10
70 14000 7.63863e-05 3.15018e-07 8493 -2.2865e-10
71 14200 7.63863e-05 1.36194e-07 8493 -9.80582e-11
72 14400 7.63863e-05 5.86042e-08 8493 -4.18142e-11
73 14600 7.63863e-05 2.50969e-08 8493 -1.79415e-11
74 14800 7.63863e-05 1.06956e-08 8493 -7.5665e-12
75 15000 7.63863e-05 4.5358e-09 8493 -3.19765e-12
76 15200 7.63863e-05 1.91399e-09 8493 -8.57203e-13
77 15400 7.63863e-05 8.03594e-10 8493 0
78 15600 7.63863e-05 3.35674e-10 8493 0
79 15800 7.63863e-05 1.39495e-10 8493 0
80 16000 7.63863e-05 5.76678e-11 8493 0
81 16200 7.63863e-05 2.37147e-11 8493 0
82 16400 7.63863e-05 9.70035e-12 8493 0
83 16600 7.63863e-05 3.94657e-12 8493 0
84 16800 7.63863e-05 1.59695e-12 8493 0
85 17000 7.63863e-05 6.42663e-13 8493 0
86 17200 7.63863e-05 2.57201e-13 8493 0
87 17400 7.63863e-05 1.02362e-13 8493 0
88 17600 7.63863e-05 4.05101e-14 8493 0
89 17800 7.63863e-05 1.59415e-14 8493 0
90 18000 7.63863e-05 6.23757e-15 8493 0
91 18200 7.63863e-05 2.42666e-15 8493 0
92 18400 7.63863e-05 9.38648e-16 8493 0
93 18600 7.63863e-05 3.61005e-16 8493 0
94 18800 7.63863e-05 1.38137e-16 8493 0
95 19000 7.63863e-05 5.28349e-17 8493 0
96 19200 7.63863e-05 2.08623e-17 8493 0
97 19400 7.63863e-05 1.02274e-17 8493 5.34671e-07
98 19600 7.63863e-05 4.56508e-12 8493 7.3282e-06
99 19800 7.63863e-05 2.82137e-12 8493 0.026289
