NTS LL(mkm)  STRESS(GPa)   VEL(m / s)  DENS(kg/m3)  ENERGY(J) 
0 990.012 30.3214 900 10937.5 -339574
1 1145.31 30.3195 899.717 10937.3 -340150
2 1300.62 30.3149 899.421 10936.9 -340170
3 1455.93 30.3058 899.09 10936.1 -340093
4 1611.25 30.2891 898.687 10934.7 -339882
5 1766.59 30.2597 898.146 10932.2 -339308
6 1921.96 30.2103 897.361 10927.9 -338153
7 2077.4 30.1305 896.172 10921.1 -336479
8 2232.93 30.0068 894.348 10910.6 -333804
9 2388.62 29.8221 891.576 10894.8 -329898
10 2544.53 29.5556 887.453 10872.3 -324257
11 2700.76 29.1836 881.484 10841.1 -316552
12 2857.44 28.6794 873.083 10799.2 -306159
13 3014.73 28.0139 861.584 10744.8 -292866
14 3172.81 27.1561 846.257 10675.7 -276278
15 3331.92 26.0728 826.321 10590.5 -256212
16 3492.31 24.7288 800.967 10487.7 -232671
17 3654.27 23.0842 769.353 10365.9 -205951
18 3818.14 21.0973 730.539 10224.5 -176437
19 3984.27 18.7156 683.425 10062.6 -145140
20 4153.07 15.8769 626.815 9879.49 -113322
21 4325 12.4756 560.343 9673.04 -82731.2
22 4500.6 8.33207 484.466 9438.56 -56046.2
23 4680.57 9.19484 392.957 9271.68 -38914.7
24 4863.77 7.04128 340.291 9136.45 -25972.5
25 5049.68 4.81177 283.38 9000.38 -16186.6
26 5238.41 3.29095 223.095 8871.36 -9920.3
27 5429.88 2.6179 170.282 8772.21 -6159.95
28 5623.51 2.09999 129.655 8698.34 -3881.26
29 5818.79 1.70659 98.3777 8643.61 -2497.71
30 6015.31 1.11522 75.4837 8598.86 -1646.01
31 6212.85 2.06366 57.6199 8583.42 -1280.51
32 6410.74 1.83087 53.3362 8573.08 -1006.95
33 6608.87 1.59749 47.7094 8562.74 -765.901
34 6807.24 1.37352 41.9035 8552.86 -565.724
35 7005.84 1.1637 36.2718 8543.63 -405.736
36 7204.66 0.971448 30.938 8535.21 -282.554
37 7403.67 0.799324 26.0001 8527.68 -191.129
38 7602.85 0.648247 21.5317 8521.09 -125.631
39 7802.19 0.518345 17.5748 8515.44 -80.2756
40 8001.67 0.408717 14.1417 8510.68 -49.884
41 8201.25 0.317824 11.22 8506.74 -30.1581
42 8400.93 0.243884 8.77935 8503.53 -17.7451
43 8600.68 0.184633 6.77613 8500.97 -10.1661
44 8800.49 0.137959 5.15991 8498.95 -5.67282
45 9000.35 0.101746 3.87719 8497.39 -3.08446
46 9200.25 0.0740302 2.8754 8496.19 -1.63477
47 9400.18 0.0532409 2.10498 8495.3 -0.844877
48 9600.12 0.037805 1.52149 8494.63 -0.425921
49 9800.08 0.0265424 1.08586 8494.14 -0.209529
50 10000.1 0.0183509 0.765297 8493.79 -0.100638
51 10200 0.012601 0.532774 8493.54 -0.0472109
52 10400 0.00850502 0.366394 8493.37 -0.0216392
53 10600 0.0056693 0.248876 8493.24 -0.00969837
54 10800 0.0037788 0.166992 8493.16 -0.00425332
55 11000 0.00243968 0.110681 8493.11 -0.00182666
56 11200 0.00157319 0.072403 8493.07 -0.00076971
57 11400 0.00102179 0.046741 8493.04 -0.000318839
58 11600 0.000627924 0.0297468 8493.03 -0.000130018
59 11800 0.000391606 0.0185915 8493.02 -5.25447e-05
60 12000 0.000234061 0.0113958 8493.01 -2.10524e-05
61 12200 0.000155296 0.00673334 8493.01 -8.58042e-06
62 12400 7.63863e-05 0.00392043 8493 -3.35823e-06
63 12600 7.63863e-05 0.00188973 8493 -1.55117e-06
64 12800 7.63863e-05 0.000880334 8493 -7.08629e-07
65 13000 7.63863e-05 0.000403696 8493 -3.221e-07
66 13200 7.63863e-05 0.000184001 8493 -1.45896e-07
67 13400 7.63863e-05 8.358e-05 8493 -6.58521e-08
68 13600 7.63863e-05 3.78368e-05 8493 -2.96118e-08
69 13800 7.63863e-05 1.70661e-05 8493 -1.32662e-08
70 14000 7.63863e-05 7.66848e-06 8493 -5.91923e-09
71 14200 7.63863e-05 3.43255e-06 8493 -2.63115e-09
72 14400 7.63863e-05 1.5305e-06 8493 -1.16533e-09
73 14600 7.63863e-05 6.79713e-07 8493 -5.14013e-10
74 14800 7.63863e-05 3.00651e-07 8493 -2.25373e-10
75 15000 7.63863e-05 1.32438e-07 8493 -9.84492e-11
76 15200 7.63863e-05 5.80955e-08 8493 -4.31394e-11
77 15400 7.63863e-05 2.53762e-08 8493 -1.86446e-11
78 15600 7.63863e-05 1.10366e-08 8493 -9.28283e-12
79 15800 7.63863e-05 4.77911e-09 8493 -3.43266e-12
80 16000 7.63863e-05 2.0603e-09 8493 0
81 16200 7.63863e-05 8.84227e-10 8493 0
82 16400 7.63863e-05 3.77765e-10 8493 0
83 16600 7.63863e-05 1.6065e-10 8493 0
84 16800 7.63863e-05 6.80015e-11 8493 0
85 17000 7.63863e-05 2.86492e-11 8493 0
86 17200 7.63863e-05 1.20127e-11 8493 0
87 17400 7.63863e-05 5.01278e-12 8493 0
88 17600 7.63863e-05 2.08166e-12 8493 0
89 17800 7.63863e-05 8.60224e-13 8493 0
90 18000 7.63863e-05 3.53725e-13 8493 0
91 18200 7.63863e-05 1.44728e-13 8493 0
92 18400 7.63863e-05 5.89203e-14 8493 0
93 18600 7.63863e-05 2.38696e-14 8493 0
94 18800 7.63863e-05 9.63082e-15 8493 0
95 19000 7.63863e-05 3.89216e-15 8493 0
96 19200 7.63863e-05 1.63207e-15 8493 0
97 19400 7.63863e-05 8.50777e-16 8493 5.34671e-07
98 19600 7.63863e-05 7.84559e-13 8493 7.3282e-06
99 19800 7.63863e-05 4.84884e-13 8493 0.0262891
