NTS LL(mkm)  STRESS(GPa)   VEL(m / s)  DENS(kg/m3)  ENERGY(J) 
0 998.676 30.3237 900 10937.7 -339622
1 1153.97 30.3218 899.722 10937.5 -340200
2 1309.27 30.3175 899.431 10937.1 -340227
3 1464.58 30.309 899.108 10936.4 -340162
4 1619.9 30.2933 898.718 10935 -339973
5 1775.23 30.2657 898.2 10932.7 -339439
6 1930.6 30.2194 897.454 10928.7 -338351
7 2086.03 30.1446 896.33 10922.3 -336782
8 2241.54 30.0281 894.609 10912.4 -334262
9 2397.2 29.8538 891.995 10897.5 -330576
10 2553.07 29.6017 888.103 10876.2 -325230
11 2709.25 29.2488 882.456 10846.6 -317907
12 2865.85 28.7692 874.491 10806.7 -307984
13 3023.03 28.1343 863.56 10754.6 -295247
14 3180.97 27.314 848.953 10688.3 -279286
15 3339.89 26.2756 829.908 10606.3 -259893
16 3500.04 24.9848 805.625 10507 -237035
17 3661.71 23.4029 775.26 10389.2 -210968
18 3825.2 21.4899 737.879 10252 -182017
19 3990.89 19.194 692.507 10094.5 -151089
20 4159.16 16.449 638.284 9915.55 -119268
21 4330.47 13.1542 574.63 9713.16 -88196.9
22 4505.34 9.18692 499.69 9485.51 -60627.7
23 4684.41 9.6093 406.794 9298.1 -41793.7
24 4867.1 7.47459 351.202 9163.35 -28301
25 5052.47 5.26836 294.523 9027.93 -17890.8
26 5240.62 3.45174 235.164 8895.55 -10952.5
27 5431.56 2.74345 179.842 8790.42 -6792.44
28 5624.8 2.1971 137.12 8712.04 -4269.12
29 5819.77 1.77849 104.55 8653.53 -2728.46
30 6016.06 1.22711 80.4345 8607.13 -1776.58
31 6213.41 2.10668 59.2943 8585.34 -1334.67
32 6411.26 1.8819 54.2267 8575.34 -1064.11
33 6609.34 1.65139 48.8896 8565.13 -818.675
34 6807.65 1.42654 43.2244 8555.2 -610.386
35 7006.2 1.2142 37.5943 8545.85 -441.803
36 7204.96 1.01839 32.2117 8537.26 -310.578
37 7403.92 0.841918 27.1971 8529.54 -212.108
38 7603.07 0.686165 22.6307 8522.74 -140.78
39 7802.37 0.551339 18.5615 8516.88 -90.8439
40 8001.81 0.436857 15.009 8511.9 -57.0144
41 8201.36 0.341495 11.9673 8507.76 -34.8162
42 8401.02 0.263316 9.41104 8504.38 -20.6943
43 8600.75 0.200372 7.30052 8501.65 -11.9774
44 8800.55 0.150475 5.58766 8499.5 -6.75271
45 9000.39 0.111508 4.22035 8497.81 -3.70986
46 9200.28 0.0816681 3.14615 8496.52 -1.98688
47 9400.2 0.0589897 2.31532 8495.54 -1.03768
48 9600.14 0.0421366 1.68231 8494.82 -0.528697
49 9800.09 0.0296928 1.20706 8494.28 -0.262878
50 10000.1 0.0207139 0.855364 8493.89 -0.127609
51 10200 0.0142551 0.598682 8493.61 -0.0605074
52 10400 0.00968655 0.414002 8493.42 -0.0280304
53 10600 0.00653577 0.282791 8493.28 -0.0126958
54 10800 0.0043302 0.190823 8493.19 -0.0056263
55 11000 0.00283354 0.127202 8493.12 -0.00244149
56 11200 0.00188828 0.083709 8493.08 -0.00103943
57 11400 0.00117933 0.0544105 8493.05 -0.000434382
58 11600 0.000785469 0.0348306 8493.03 -0.000179035
59 11800 0.000470379 0.0219943 8493.02 -7.2727e-05
60 12000 0.000312834 0.0135738 8493.01 -2.94579e-05
61 12200 0.000234061 0.00827414 8493.01 -1.16294e-05
62 12400 0.000155296 0.00464164 8493 -4.88511e-06
63 12600 7.63863e-05 0.0025959 8493 -2.07114e-06
64 12800 7.63863e-05 0.00117431 8493 -9.46306e-07
65 13000 7.63863e-05 0.000537237 8493 -4.31865e-07
66 13200 7.63863e-05 0.000246033 8493 -1.96284e-07
67 13400 7.63863e-05 0.000112185 8493 -8.88557e-08
68 13600 7.63863e-05 5.09363e-05 8493 -4.00723e-08
69 13800 7.63863e-05 2.30402e-05 8493 -1.80057e-08
70 14000 7.63863e-05 1.03834e-05 8493 -8.05898e-09
71 14200 7.63863e-05 4.66183e-06 8493 -3.59357e-09
72 14400 7.63863e-05 2.08503e-06 8493 -1.59633e-09
73 14600 7.63863e-05 9.28914e-07 8493 -7.06231e-10
74 14800 7.63863e-05 4.12208e-07 8493 -3.10795e-10
75 15000 7.63863e-05 1.82181e-07 8493 -1.3644e-10
76 15200 7.63863e-05 8.01875e-08 8493 -5.98327e-11
77 15400 7.63863e-05 3.51477e-08 8493 -2.58991e-11
78 15600 7.63863e-05 1.53407e-08 8493 -1.24034e-11
79 15800 7.63863e-05 6.6669e-09 8493 -6.08518e-12
80 16000 7.63863e-05 2.88476e-09 8493 0
81 16200 7.63863e-05 1.24272e-09 8493 0
82 16400 7.63863e-05 5.32962e-10 8493 0
83 16600 7.63863e-05 2.27536e-10 8493 0
84 16800 7.63863e-05 9.66972e-11 8493 0
85 17000 7.63863e-05 4.09038e-11 8493 0
86 17200 7.63863e-05 1.72218e-11 8493 0
87 17400 7.63863e-05 7.21665e-12 8493 0
88 17600 7.63863e-05 3.00965e-12 8493 0
89 17800 7.63863e-05 1.2491e-12 8493 0
90 18000 7.63863e-05 5.15894e-13 8493 0
91 18200 7.63863e-05 2.12025e-13 8493 0
92 18400 7.63863e-05 8.67104e-14 8493 0
93 18600 7.63863e-05 3.52903e-14 8493 0
94 18800 7.63863e-05 1.43061e-14 8493 0
95 19000 7.63863e-05 5.81016e-15 8493 0
96 19200 7.63863e-05 2.44962e-15 8493 0
97 19400 7.63863e-05 1.28388e-15 8493 5.34671e-07
98 19600 7.63863e-05 6.58558e-13 8493 7.3282e-06
99 19800 7.63863e-05 4.07012e-13 8493 0.0262891
