NTS LL(mkm)  STRESS(GPa)   VEL(m / s)  DENS(kg/m3)  ENERGY(J) 
0 906.939 30.2981 900 10935.5 -339067
1 1062.27 30.2947 899.664 10935.2 -339610
2 1217.6 30.2863 899.299 10934.4 -339548
3 1372.95 30.2692 898.864 10933 -339298
4 1528.31 30.2374 898.282 10930.3 -338761
5 1683.71 30.1818 897.425 10925.5 -337621
6 1839.19 30.0897 896.096 10917.6 -335547
7 1994.77 29.9439 894.01 10905.2 -332467
8 2150.53 29.7236 890.778 10886.5 -327757
9 2306.56 29.4034 885.899 10859.5 -321056
10 2462.97 28.9546 878.763 10822 -311754
11 2619.93 28.3453 868.658 10771.8 -299477
12 2777.62 27.5419 854.788 10706.6 -283637
13 2936.27 26.508 836.3 10624.5 -264155
14 3096.15 25.2061 812.294 10523.9 -240886
15 3257.55 23.596 781.84 10403.4 -214023
16 3420.82 21.6345 743.937 10262.2 -184095
17 3586.34 19.2697 697.507 10099.5 -152061
18 3754.53 16.4418 641.587 9915.1 -119146
19 3925.85 13.0393 575.832 9706.34 -87215.8
20 4100.84 8.92512 499.003 9471.05 -59157.6
21 4280.19 9.41724 404.211 9285.83 -40439.4
22 4463.11 7.20569 347.595 9146.6 -26835.6
23 4648.82 4.92638 288.933 9007.27 -16599.8
24 4837.4 3.31418 227.283 8874.8 -10066
25 5028.8 2.62239 172.721 8772.88 -6184.67
26 5222.42 2.09476 130.811 8697.6 -3858.32
27 5417.71 1.69601 98.5122 8642.16 -2461.78
28 5614.26 1.08935 74.709 8596.94 -1617.39
29 5811.84 2.0342 57.9195 8582.11 -1243.89
30 6009.77 1.77881 52.9501 8570.77 -950.278
31 6207.95 1.53013 46.6547 8559.77 -702.425
32 6406.39 1.29568 40.4129 8549.43 -503.182
33 6605.07 1.07966 34.4708 8539.95 -349.113
34 6803.97 0.885523 28.9345 8531.45 -234.642
35 7003.07 0.714971 23.9004 8524 -152.849
36 7202.34 0.568384 19.4321 8517.62 -96.5507
37 7401.77 0.445109 15.5554 8512.26 -59.1701
38 7601.31 0.343382 12.2629 8507.85 -35.1978
39 7800.96 0.261034 9.52286 8504.28 -20.3325
40 8000.7 0.195572 7.28619 8501.45 -11.4111
41 8200.5 0.144493 5.49403 8499.24 -6.22476
42 8400.35 0.10521 4.08355 8497.54 -3.30192
43 8600.25 0.075605 2.99253 8496.26 -1.70388
44 8800.17 0.0535559 2.16256 8495.31 -0.855707
45 9000.12 0.03749 1.54139 8494.62 -0.418428
46 9200.08 0.0258335 1.0838 8494.11 -0.199306
47 9400.05 0.017642 0.751893 8493.76 -0.0925178
48 9600.03 0.0118921 0.514745 8493.51 -0.0418754
49 9800.02 0.00787486 0.347785 8493.34 -0.0184901
50 10000 0.00519668 0.231871 8493.22 -0.00797266
51 10200 0.00338494 0.152601 8493.14 -0.00335969
52 10400 0.0021246 0.0990835 8493.09 -0.00138544
53 10600 0.00133688 0.0634655 8493.06 -0.000560017
54 10800 0.000864242 0.0400357 8493.04 -0.000222729
55 11000 0.000549152 0.0248505 8493.02 -8.75553e-05
56 11200 0.000312834 0.0151796 8493.01 -3.39392e-05
57 11400 0.000234061 0.00896007 8493.01 -1.32999e-05
58 11600 0.000155296 0.00509574 8493 -5.32663e-06
59 11800 7.63863e-05 0.00279557 8493 -2.17385e-06
60 12000 7.63863e-05 0.00124943 8493 -9.76752e-07
61 12200 7.63863e-05 0.000561785 8493 -4.38582e-07
62 12400 7.63863e-05 0.000253092 8493 -1.96151e-07
63 12600 7.63863e-05 0.000113591 8493 -8.73346e-08
64 12800 7.63863e-05 5.07445e-05 8493 -3.87185e-08
65 13000 7.63863e-05 2.25707e-05 8493 -1.7092e-08
66 13200 7.63863e-05 9.9966e-06 8493 -7.5115e-09
67 13400 7.63863e-05 4.40844e-06 8493 -3.28761e-09
68 13600 7.63863e-05 1.93557e-06 8493 -1.4315e-09
69 13800 7.63863e-05 8.46041e-07 8493 -6.20732e-10
70 14000 7.63863e-05 3.68133e-07 8493 -2.67811e-10
71 14200 7.63863e-05 1.59447e-07 8493 -1.15378e-10
72 14400 7.63863e-05 6.87378e-08 8493 -4.92246e-11
73 14600 7.63863e-05 2.94926e-08 8493 -2.09851e-11
74 14800 7.63863e-05 1.25933e-08 8493 -8.89179e-12
75 15000 7.63863e-05 5.35117e-09 8493 -3.74472e-12
76 15200 7.63863e-05 2.26262e-09 8493 -1.48132e-12
77 15400 7.63863e-05 9.51923e-10 8493 0
78 15600 7.63863e-05 3.98469e-10 8493 0
79 15800 7.63863e-05 1.65945e-10 8493 0
80 16000 7.63863e-05 6.87516e-11 8493 0
81 16200 7.63863e-05 2.83354e-11 8493 0
82 16400 7.63863e-05 1.16166e-11 8493 0
83 16600 7.63863e-05 4.73705e-12 8493 0
84 16800 7.63863e-05 1.92129e-12 8493 0
85 17000 7.63863e-05 7.75024e-13 8493 0
86 17200 7.63863e-05 3.10922e-13 8493 0
87 17400 7.63863e-05 1.24046e-13 8493 0
88 17600 7.63863e-05 4.92137e-14 8493 0
89 17800 7.63863e-05 1.94155e-14 8493 0
90 18000 7.63863e-05 7.61638e-15 8493 0
91 18200 7.63863e-05 2.9708e-15 8493 0
92 18400 7.63863e-05 1.15216e-15 8493 0
93 18600 7.63863e-05 4.44302e-16 8493 0
94 18800 7.63863e-05 1.70478e-16 8493 0
95 19000 7.63863e-05 6.53859e-17 8493 0
96 19200 7.63863e-05 2.58982e-17 8493 0
97 19400 7.63863e-05 1.27356e-17 8493 5.34671e-07
98 19600 7.63863e-05 4.20403e-12 8493 7.3282e-06
99 19800 7.63863e-05 2.59823e-12 8493 0.026289
